t_rel_s,ecg,hdf_label
0.0,1.1907907500015171,0
0.003,1.1289399497101764,0
0.003,1.062398721557811,0
0.006,0.9958896309085116,0
0.007,0.9421800127636704,0
0.009,0.900431894988083,0
0.012,0.8582287813401814,0
0.014,0.8138025957718054,0
0.016,0.7707747343038572,0
0.017,0.724985263187172,0
0.019,0.68212323168626,0
0.022,0.6455286018179056,0
0.023,0.6056078674676054,0
0.025,0.5646842056713753,0
0.028,0.5300176606972737,0
0.03,0.5011409055688776,0
0.032,0.4746395460766262,0
0.033,0.4520406196648148,0
0.036,0.4354583792899908,0
0.038,0.425001329409945,0
0.039,0.4208555838604381,0
0.041,0.4237659728923757,0
0.043,0.4109694802814471,0
0.044,0.3806051161646986,0
0.047,0.3442079634566696,0
0.049,0.2955478383590716,0
0.051,0.2481640184203179,0
0.052,0.2030495432035226,0
0.055,0.1480446715991048,0
0.056,0.0859785125906705,0
0.059,0.0421397859510953,0
0.06,0.017377040960648,0
0.062,0.001574171199945,0
0.064,0.0014034456271802,0
0.067,-0.0009046873455615,0
0.069,-0.0061747753017935,0
0.071,0.0002442387751911,0
0.072,0.0147085253940866,0
0.075,0.0165292271258349,0
0.076,0.0055737547013919,0
0.078,-0.010739390411983,0
0.08,-0.0376979428931899,0
0.083,-0.0593631855175648,0
0.085,-0.0750337547328943,0
0.087,-0.0971713777296811,0
0.088,-0.1224274213409156,0
0.089,-0.1404376563202497,0
0.092,-0.15169162691937,0
0.094,-0.1588342838363332,0
0.095,-0.1593534350871417,0
0.097,-0.1625457815863346,0
0.099,-0.1687005111256084,0
0.102,-0.1710709210223915,0
0.104,-0.1716218488350871,0
0.105,-0.1739324818171102,0
0.108,-0.1776111067960502,0
0.11,-0.1823317771429424,0
0.111,-0.1889327231781999,0
0.113,-0.193559401248294,0
0.115,-0.1961836042264025,0
0.118,-0.1994436898723304,0
0.119,-0.2025515924794725,0
0.121,-0.2047516219842524,0
0.124,-0.2062559172245572,0
0.126,-0.2068843461168243,0
0.128,-0.2064909570904767,0
0.128,-0.2062596838090774,0
0.131,-0.2061883382773605,0
0.132,-0.2055714928361929,0
0.134,-0.2046609472353893,0
0.136,-0.2029869129204387,0
0.139,-0.2004465043650804,0
0.141,-0.1974469353119187,0
0.143,-0.1938511383840525,0
0.144,-0.1897407956857128,0
0.147,-0.1851557274176923,0
0.148,-0.1799394279707738,0
0.151,-0.174115124712591,0
0.152,-0.1681310096593732,0
0.154,-0.1620043582768729,0
0.156,-0.1555376344555368,0
0.159,-0.1488472501224059,0
0.161,-0.1416452465183831,0
0.163,-0.1339137164675994,0
0.164,-0.1258954715473025,0
0.167,-0.1175298063917262,0
0.168,-0.1105019254345571,0
0.169,-0.10501800908356,0
0.171,-0.1002519229440208,0
0.174,-0.0967065274179463,0
0.176,-0.0934828092781471,0
0.177,-0.0905525887421036,0
0.18,-0.0888319320415008,0
0.182,-0.08816980612796,0
0.184,-0.0872753375919915,0
0.185,-0.0861853917724068,0
0.187,-0.0854544784535504,0
0.19,-0.0847913582190134,0
0.191,-0.0852437453426975,0
0.193,-0.086910745526471,0
0.196,-0.0890553456687873,0
0.198,-0.0919389406532316,0
0.2,-0.093404096305959,0
0.201,-0.0931754800175537,0
0.203,-0.0924846580901253,0
0.206,-0.0907077221622717,0
0.207,-0.0888547409236324,0
0.209,-0.0870069257148999,0
0.211,-0.084498536911104,0
0.212,-0.0815622286829339,0
0.215,-0.078458249303971,0
0.217,-0.0793045842664428,0
0.219,-0.0797378404333867,0
0.22,-0.0817412732152856,0
0.223,-0.082963157034508,0
0.224,-0.0832570098794458,0
0.226,-0.084105693703174,0
0.228,-0.0850093153924618,0
0.23,-0.0855161607902663,0
0.233,-0.0857041824778865,0
0.235,-0.0830314242319711,0
0.236,-0.0827563091261875,0
0.239,-0.0693733237970145,0
0.24,-0.0474895176103418,0
0.243,-0.0327505427810411,0
0.244,-0.0252833225535309,0
0.246,-0.0355328021804881,0
0.248,-0.061748139886146,0
0.251,-0.0843462299898494,0
0.253,-0.1032508963197687,0
0.254,-0.1104050991816704,0
0.256,-0.1048575033090833,0
0.257,-0.0816126342259842,0
0.259,-0.0442183288529167,0
0.262,-0.0223385034871756,0
0.263,-0.0196037892533364,0
0.265,-0.0152070954559762,0
0.267,-0.0113249105245155,0
0.27,-0.0122718308038753,0
0.272,-0.0086050337945852,0
0.273,0.00767092377885,0
0.276,0.0414531990440207,0
0.278,0.0750096815838772,0
0.279,0.1060929558685467,0
0.281,0.1382904002839004,0
0.283,0.1659367316950876,0
0.286,0.2049197099155656,0
0.288,0.2545473107997617,0
0.289,0.3037816530107302,0
0.292,0.3552915605153928,0
0.294,0.3868426477206733,0
0.295,0.3945378569334717,0
0.296,0.3910152755468142,0
0.299,0.369233926278479,0
0.3,0.3476872161244468,0
0.302,0.3381946768013484,0
0.304,0.3465348032623293,0
0.307,0.3897569410809122,0
0.309,0.477759070510726,0
0.311,0.6131599255336145,0
0.312,0.7938798679039761,0
0.315,1.0075003483552163,0
0.316,1.2353882919573778,0
0.319,1.4568211225131815,0
0.32,1.652036868657069,0
0.322,1.801380413779441,0
0.325,1.8904724066671683,0
0.327,1.9132606808704204,0
0.328,1.8724470860343152,0
0.331,1.7680527990390762,0
0.332,1.6128894046874271,0
0.335,1.4087678010193452,0
0.336,1.1322520236108575,0
0.337,0.7855602287387569,0
0.339,0.3851035116101395,0
0.342,-0.0547302503490738,0
0.344,-0.5077087822420238,0
0.345,-0.9388668415742708,0
0.348,-1.3055605324561044,0
0.35,-1.5754324514914115,0
0.351,-1.73386190965477,0
0.353,-1.7757238094786725,0
0.355,-1.7159549376731285,0
0.358,-1.584018186218202,0
0.359,-1.4161227129582714,0
0.361,-1.250118409340963,0
0.364,-1.1157219144747144,0
0.366,-1.0283677831029374,0
0.368,-0.9880917557707172,0
0.369,-0.9817845279472328,0
0.371,-0.989962016648244,0
0.374,-0.993067783390015,0
0.375,-0.9779797448439934,0
0.377,-0.942058167075032,0
0.378,-0.8910874076628695,0
0.381,-0.8358705933265477,0
0.383,-0.7864750037467249,0
0.384,-0.746794873228772,0
0.387,-0.7102192026697215,0
0.388,-0.6683816832709302,0
0.391,-0.6145390243504291,0
0.392,-0.5415487405908601,0
0.394,-0.4587000313579576,0
0.396,-0.3724592723566003,0
0.399,-0.2883117617975757,0
0.401,-0.2214378664819558,0
0.403,-0.1789679752340162,0
0.404,-0.1770735303662941,0
0.407,-0.2368431158788987,0
0.408,-0.3614376746287749,0
0.411,-0.5387711958737821,0
0.412,-0.7224405450125012,0
0.414,-0.831606761080614,0
0.416,-0.7776084361272837,0
0.419,-0.4885109813573228,0
0.42,0.0539162456411679,0
0.422,0.7903000271283216,0
0.424,1.5885658525387456,0
0.425,2.269521447319561,0
0.427,2.6508797747161275,0
0.43,2.594512022781606,0
0.431,2.04235373872876,0
0.433,1.035432203125717,0
0.436,-0.287436099183471,0
0.438,-1.7118380292630406,0
0.44,-2.988215922695746,0
0.441,-3.88407678130546,0
0.444,-4.236241231369926,1
0.446,-3.988223858198726,0
0.447,-3.2009921488662068,0
0.449,-2.0343920310109884,0
0.451,-0.7049095370764492,0
0.454,0.5642906161068013,0
0.456,1.586873391931756,0
0.457,2.2423934984776834,0
0.46,2.486571314765877,0
0.462,2.347600745897549,0
0.463,1.913378098196313,0
0.464,1.3123662078147724,0
0.467,0.6897039232152699,0
0.468,0.1809616914713075,0
0.47,-0.1140137381995453,0
0.473,-0.1524208679013702,0
0.475,0.0432266868856118,0
0.476,0.3930669556764469,0
0.479,0.7837507216593357,0
0.48,1.1043546671210642,0
0.483,1.275681142205964,0
0.484,1.2713461684095129,0
0.486,1.122068778988707,0
0.488,0.8963299007900369,0
0.491,0.6752450508609767,0
0.493,0.524611935706566,0
0.495,0.4741196340161018,0
0.496,0.5132223025341317,0
0.499,0.6038595815317824,0
0.5,0.6978422414307879,0
0.503,0.7541363660160982,0
0.503,0.7539815100956804,0
0.505,0.7014889078797548,0
0.507,0.6179839391284403,0
0.51,0.5330326144837912,0
0.512,0.4636199793669698,0
0.513,0.4218099139646555,0
0.516,0.410332562808138,0
0.518,0.4144649141216894,0
0.519,0.419794956686053,0
0.521,0.4104790327135037,0
0.523,0.3731261305709585,0
0.526,0.3063031108317272,0
0.528,0.2393405168491479,0
0.529,0.1830460125694318,0
0.532,0.1358158128204318,0
0.534,0.1118170032248432,0
0.536,0.1001480136313633,0
0.537,0.099403890985145,0
0.539,0.1186984240499345,0
0.542,0.1495108320203317,0
0.543,0.1585887612456046,0
0.544,0.140143750813347,0
0.547,0.1114648956712474,0
0.549,0.0666899172180297,0
0.551,0.0271103617167263,0
0.552,-0.0038382592101747,0
0.555,-0.0329840487291127,0
0.556,-0.0533628218312455,0
0.559,-0.069922121052153,0
0.56,-0.0858008978475116,0
0.562,-0.1008091394719102,0
0.564,-0.1177861325054636,0
0.567,-0.1287226687783931,0
0.569,-0.1345047361184079,0
0.571,-0.1427378126850595,0
0.572,-0.1475725004532584,0
0.575,-0.1558359260548455,0
0.576,-0.1670705939858192,0
0.578,-0.1774356601349263,0
0.58,-0.1932074608376076,0
0.583,-0.1968446025057118,0
0.585,-0.1890218191113249,0
0.587,-0.1909829793915346,0
0.588,-0.200663790570314,0
0.59,-0.2098115540635592,0
0.592,-0.2171739044056386,0
0.593,-0.2159375850540632,0
0.595,-0.2022752494216426,0
0.598,-0.1977335171170166,0
0.599,-0.2003770202284303,0
0.601,-0.1946932252768568,0
0.604,-0.1887929605408458,0
0.606,-0.1870760068118868,0
0.608,-0.1901771678547696,0
0.609,-0.1970490064578077,0
0.611,-0.205461114647478,0
0.614,-0.2272091153401496,0
0.615,-0.2572083236673574,0
0.617,-0.2820749090228149,0
0.619,-0.3007401408011431,0
0.622,-0.3202020276315523,0
0.624,-0.3418914901743978,0
0.625,-0.3696311357119848,0
0.628,-0.4065459594575045,0
0.628,-0.4399179514577484,0
0.631,-0.4713592797020529,0
0.632,-0.5109786028671802,0
0.634,-0.5526458878234959,0
0.636,-0.5955757446275162,0
0.639,-0.639103190523306,0
0.641,-0.6855158559702047,0
0.643,-0.7341674796647868,0
0.644,-0.7766581262486502,0
0.647,-0.816197879055092,0
0.648,-0.8660898840173427,0
0.651,-0.9271463824531498,0
0.652,-0.9786329968284488,0
0.654,-1.0188152958635237,0
0.656,-1.065405832951079,0
0.659,-1.1089299761655829,0
0.661,-1.130912402510318,0
0.663,-1.1289404819962792,0
0.664,-1.1113703617443254,0
0.667,-1.0720636380134478,0
0.668,-0.9978345921628322,0
0.67,-0.8860599499408285,0
0.671,-0.7347552322733873,0
0.673,-0.5438641394236435,0
0.676,-0.3309374613841662,0
0.678,-0.1045557626899355,0
0.68,0.1305213818835882,0
0.681,0.3590247920345657,0
0.684,0.5642697642585603,0
0.686,0.7340995120645616,0
0.687,0.8647688387265013,0
0.689,0.9514066283074848,0
0.691,0.9899860708407672,0
0.694,0.9864821049829242,0
0.696,0.9527784627425524,0
0.697,0.8991304264642466,0
0.7,0.8404391724808578,0
0.702,0.7876984592174865,0
0.703,0.7353842792509843,0
0.705,0.6872745267873648,0
0.707,0.654797054108444,0
0.71,0.6342699632578404,0
0.711,0.6155981632787972,0
0.712,0.599024630291334,0
0.715,0.5821152292497245,0
0.717,0.5617545708351266,0
0.719,0.540373119167729,0
0.72,0.5157720652185122,0
0.723,0.4918779098895042,0
0.724,0.4683797696608925,0
0.726,0.4406945437344232,0
0.728,0.4091743421457228,0
0.73,0.3866176467701803,0
0.733,0.3732417048321393,0
0.735,0.3627643706600572,0
0.736,0.3582721014713492,0
0.739,0.3517864994196007,0
0.74,0.3424930169478509,0
0.743,0.3367983228290141,0
0.744,0.3327994599604676,0
0.746,0.3262368590134593,0
0.748,0.3173478667171428,0
0.751,0.3067010825296809,0
0.753,0.2932070516189174,0
0.753,0.2806526078108324,0
0.756,0.2689767275132994,0
0.758,0.2552914939773446,0
0.759,0.2402778293102885,0
0.761,0.226794100928215,0
0.763,0.2147093294948863,0
0.766,0.2030469816631925,0
0.767,0.1924656070903528,0
0.769,0.1803590138460552,0
0.772,0.1665543627263535,0
0.774,0.1528590465290363,0
0.776,0.1386591698899273,0
0.777,0.1239362645881079,0
0.779,0.1088377534861666,0
0.782,0.0928938085361891,0
0.783,0.0761067258285594,0
0.785,0.0588668132979432,0
0.788,0.0410904395378068,0
0.79,0.0225593745911171,0
0.792,0.0033131368657216,0
0.793,-0.0137638599778296,0
0.795,-0.0284172922406068,0
0.796,-0.0419965502108274,0
0.799,-0.0536839044520398,0
0.8,-0.0652596495795958,0
0.802,-0.0768077786632223,0
0.804,-0.0867057893780813,0
0.807,-0.0952967553270461,0
0.809,-0.1047834558033534,0
0.811,-0.1151366621251696,0
0.812,-0.1255058351100618,0
0.815,-0.1364209370505507,0
0.816,-0.1461330834627927,0
0.819,-0.1545243930251027,0
0.82,-0.1628916475890845,0
0.822,-0.1708344996925524,0
0.825,-0.17728837085696,0
0.827,-0.1822739811509538,0
0.828,-0.1859925085930898,0
0.831,-0.1881591971433269,0
0.832,-0.1896791636126404,0
0.835,-0.1905405981844096,0
0.836,-0.1900279044380921,0
0.838,-0.1883016890046215,0
0.839,-0.1856484808666386,0
0.841,-0.1819879356064209,0
0.844,-0.1772665646388364,0
0.846,-0.1715208659944041,0
0.848,-0.1643444889657053,0
0.849,-0.1556977113084678,0
0.851,-0.145789551540066,0
0.854,-0.1345064712091588,0
0.855,-0.1261101051580474,0
0.857,-0.1210312067488329,0
0.859,-0.1171703561598384,0
0.862,-0.1157482989935399,0
0.864,-0.1143372854381407,0
0.865,-0.1128140882176722,0
0.868,-0.1134909871391813,0
0.87,-0.1159103070219791,0
0.871,-0.1169055527340742,0
0.873,-0.1165332354035468,0
0.875,-0.1160531898458169,0
0.878,-0.1147173223800456,0
0.878,-0.1150466533397365,0
0.881,-0.1172302923981921,0
0.883,-0.1194244245157757,0
0.884,-0.1222204459268269,0
0.887,-0.1235203991292794,0
0.888,-0.1229367058495926,0
0.891,-0.1219006891201819,0
0.892,-0.1197768617368983,0
0.894,-0.1173692319288544,0
0.896,-0.114782112613857,0
0.899,-0.1110437038420962,0
0.901,-0.106309951029343,0
0.903,-0.1028038764506277,0
0.904,-0.1005752196216772,0
0.907,-0.0986457849657427,0
0.908,-0.0975745080877709,0
0.911,-0.095807400759266,0
0.912,-0.0932309619257887,0
0.914,-0.0910807450603872,0
0.916,-0.0890086456451349,0
0.919,-0.0866007562948945,0
0.92,-0.0839575800114813,0
0.921,-0.0810279562250502,0
0.924,-0.0777317277643152,0
0.926,-0.0746033534470919,0
0.927,-0.0716423901982687,0
0.929,-0.0685192380203748,0
0.931,-0.0653460722898608,0
0.934,-0.061956834480832,0
0.936,-0.058305858476621,0
0.937,-0.0545522962646927,0
0.94,-0.0506450262680744,0
0.942,-0.0465893287094629,0
0.944,-0.0423991697264814,0
0.945,-0.0380276077684713,0
0.947,-0.0334769071688525,0
0.95,-0.0295940956236647,0
0.951,-0.0264551146629792,0
0.953,-0.023662662960826,0
0.956,-0.0214570525136175,0
0.958,-0.0193432297312551,0
0.96,-0.0172992526230253,0
0.961,-0.0157889072702325,0
0.963,-0.0147194929096936,0
0.964,-0.0135240970204982,0
0.967,-0.0122206880087603,0
0.968,-0.0110295665216155,0
0.97,-0.0098202397258461,0
0.973,-0.0090606839383784,0
0.975,-0.0087873170386859,0
0.976,-0.0086669147149385,0
0.979,-0.0088113228659073,0
0.98,-0.008825045904649,0
0.983,-0.0086392916389129,0
0.984,-0.0085264546578878,0
0.986,-0.0083694537798176,0
0.988,-0.0083268190239045,0
0.991,-0.0084213992293507,0
0.993,-0.0084709987789151,0
0.995,-0.0085090147025903,0
0.996,-0.008952775724904,0
0.999,-0.0098141878209205,0
1.0,-0.0109149570166219,0
1.003,-0.0123622168486955,0
1.003,-0.0138684648549875,0
1.006,-0.0154157040072809,0
1.007,-0.0172376522556268,0
1.009,-0.0192723182598091,0
1.012,-0.0218420588432783,0
1.014,-0.0250094840140242,0
1.016,-0.0285826966369265,0
1.017,-0.032665298384256,0
1.019,-0.0371332982337125,0
1.022,-0.0419820287947968,0
1.023,-0.0473723204260721,0
1.025,-0.0532880226812552,0
1.028,-0.0594172446651459,0
1.03,-0.0657636079336169,0
1.032,-0.0724761858226467,0
1.033,-0.0794840864148305,0
1.036,-0.0870252890472003,0
1.038,-0.0951258740489268,0
1.039,-0.1036153899421414,0
1.041,-0.1125547145737685,0
1.043,-0.1182710684031028,0
1.044,-0.1203744753453643,0
1.047,-0.1206319487872513,0
1.049,-0.1179746748238422,0
1.051,-0.1144758225037389,0
1.052,-0.1102173307269194,0
1.055,-0.1031868233941134,0
1.056,-0.0937567425838103,0
1.059,-0.0839445328486633,0
1.06,-0.0736090926586962,0
1.062,-0.0619752760075745,0
1.064,-0.0494663216676332,0
1.067,-0.0344950649041855,0
1.069,-0.0169154218813989,0
1.071,0.0017888515823315,0
1.072,0.0219744510919942,0
1.075,0.0499235348131735,0
1.076,0.0818139010674249,0
1.078,0.119998630599114,0
1.08,0.1643200343229727,0
1.083,0.2029782804564371,0
1.085,0.2405758945610966,0
1.087,0.2923905595168196,0
1.088,0.3592999173305085,0
1.089,0.435713792095348,0
1.092,0.5207700945725491,0
1.094,0.6279871650326854,0
1.095,0.7487401398019984,0
1.097,0.8581609244162774,0
1.099,0.9525261858247605,0
1.102,1.0338960440691611,0
1.104,1.0982588094761176,0
1.105,1.1561841430626454,0
1.108,1.211171593134783,0
1.11,1.2584693232937274,0
1.111,1.3023668680912197,0
1.113,1.322629865691357,0
1.115,1.3184489968470428,0
1.118,1.3023974902914937,0
1.119,1.2698247621972023,0
1.121,1.2346358885707118,0
1.124,1.2047469586436663,0
1.126,1.1794154336629408,0
1.128,1.166769410078894,0
1.128,1.1458779598076243,0
1.131,1.1079619427492833,0
1.132,1.0520138195562727,0
1.134,0.955831929664275,0
1.136,0.8207950875352742,0
1.139,0.6336961841478254,0
1.141,0.3816793168751776,0
1.143,0.0745067433268049,0
1.144,-0.2815093448677719,0
1.147,-0.6622257776209584,0
1.148,-1.0279065506770817,0
1.151,-1.3503990402606196,0
1.152,-1.600820371987669,0
1.154,-1.7618961036417409,0
1.156,-1.833365059169307,0
1.159,-1.8223529925855024,0
1.161,-1.7474741039842543,0
1.163,-1.6318365077038366,0
1.164,-1.4965550408228714,0
1.167,-1.36253585556533,0
1.168,-1.2432950263918383,0
1.169,-1.146246099166382,0
1.171,-1.0727287236823642,0
1.174,-1.0202618597422202,0
1.176,-0.9836797302662288,0
1.177,-0.957761468986411,0
1.18,-0.9379560471825038,0
1.182,-0.9192530437134546,0
1.184,-0.8960308522418284,0
1.185,-0.8633354286637701,0
1.187,-0.8195382413854796,0
1.19,-0.7598375445196665,0
1.191,-0.6863630889576704,0
1.193,-0.6021958553371484,0
1.196,-0.51453746200936,0
1.198,-0.4262633828863727,0
1.2,-0.3475869259943282,0
1.201,-0.2833628148098494,0
1.203,-0.2507195197047093,0
1.206,-0.2667603248015057,0
1.207,-0.3464953677100545,0
1.209,-0.4879126839622685,0
1.211,-0.6584550138016978,0
1.212,-0.7905784973399366,0
1.215,-0.7946449462163048,0
1.217,-0.5893074142095112,0
1.219,-0.1387843898351068,0
1.22,0.5201250475075966,0
1.223,1.2757521436756545,0
1.224,1.967167236822026,0
1.226,2.427019264122627,0
1.228,2.524070051275168,0
1.23,2.1917251309366814,0
1.233,1.43721705497922,0
1.235,0.3381117903888345,0
1.236,-0.9676310769044588,0
1.239,-2.297453169299361,0
1.24,-3.446864522116689,0
1.243,-4.223042912780901,0
1.244,-4.485498769138771,1
1.246,-4.181664975806244,0
1.248,-3.3634672686112026,0
1.251,-2.177639274172047,0
1.253,-0.8316439874028039,0
1.254,0.4543239276150745,0
1.256,1.4956946013575905,0
1.257,2.1706947102887555,0
1.259,2.4374522101364344,0
1.262,2.3245796980487867,0
1.263,1.9202706604879929,0
1.265,1.350437052310828,0
1.267,0.7524893494707375,0
1.27,0.257949799495308,0
1.272,-0.0380653991030056,0
1.273,-0.0993457586696653,0
1.276,0.0596093552855983,0
1.278,0.3786324767228743,0
1.279,0.7551183122914028,0
1.281,1.0795312918246451,0
1.283,1.2741213903471964,0
1.286,1.3069201924353795,0
1.288,1.1959309453493487,0
1.289,0.9981156030022988,0
1.292,0.783930527485351,0
1.294,0.6228951035945334,0
1.295,0.5465983026505666,0
1.296,0.547688515054122,0
1.299,0.6024931565159315,0
1.3,0.6700458031220707,0
1.302,0.7218399908908346,0
1.304,0.7510991075691683,0
1.307,0.7605623895202209,0
1.309,0.7336304560329328,0
1.311,0.6826918393315731,0
1.312,0.6301271060350098,0
1.315,0.5682896991902069,0
1.316,0.526240498643544,0
1.319,0.4994139259859153,0
1.32,0.4588375267859595,0
1.322,0.4119314105578795,0
1.325,0.3659808818604089,0
1.327,0.3237329860208058,0
1.328,0.2925849853443684,0
1.331,0.2772515905145991,0
1.332,0.2539537643642724,0
1.335,0.2251358882888886,0
1.336,0.2057262236379065,0
1.337,0.1921967285117023,0
1.339,0.1749021136061158,0
1.342,0.155140750140921,0
1.344,0.1359511299683994,0
1.345,0.1155164486747135,0
1.348,0.1001711802578985,0
1.35,0.0904438956227254,0
1.351,0.0819611192588108,0
1.353,0.0762688824228273,0
1.355,0.0665525231998478,0
1.358,0.0517888756579123,0
1.359,0.0360065706553297,0
1.361,0.017194736351073,0
1.364,0.0074921239201307,0
1.366,0.0037629908178365,0
1.368,-0.0106387721514836,0
1.369,-0.0358997137535387,0
1.371,-0.0491997250297011,0
1.374,-0.0491995142465105,0
1.375,-0.0539200065719181,0
1.377,-0.0536107248108837,0
1.378,-0.0539345012020736,0
1.381,-0.054910705630407,0
1.383,-0.0509389821308185,0
1.384,-0.0476297767332728,0
1.387,-0.0470892384997089,0
1.388,-0.0511626514783988,0
1.391,-0.0569362427032763,0
1.392,-0.0660118712844437,0
1.394,-0.0830530681945752,0
1.396,-0.1043918644124632,0
1.399,-0.1204983266243937,0
1.401,-0.1296824650456588,0
1.403,-0.1443731634785058,0
1.404,-0.1665361652525105,0
1.407,-0.1837127350818156,0
1.408,-0.1991530935566256,0
1.411,-0.2181215308794359,0
1.412,-0.2396064320835416,0
1.414,-0.2634544766307296,0
1.416,-0.286199539226101,0
1.419,-0.3120430305098683,0
1.42,-0.3393509854714593,0
1.422,-0.3661959705306948,0
1.424,-0.3973955627804506,0
1.425,-0.4201211079099773,0
1.427,-0.4351834950851461,0
1.43,-0.4602149537415678,0
1.431,-0.494113023373167,0
1.433,-0.5410933994881651,0
1.436,-0.6008697220641847,0
1.438,-0.6614074571711517,0
1.44,-0.7224373336339819,0
1.441,-0.7774661200700627,0
1.444,-0.8222801915154457,0
1.446,-0.8578125249753511,0
1.447,-0.8850975422308939,0
1.449,-0.9129714540955612,0
1.451,-0.9430018422838736,0
1.454,-0.9659213311543264,0
1.456,-0.9794026090218584,0
1.457,-0.9933762075005882,0
1.46,-1.0008805162014354,0
1.462,-0.9874499233428542,0
1.463,-0.9503058216483616,0
1.464,-0.8848194567247932,0
1.467,-0.7845484079905221,0
1.468,-0.6450115966890348,0
1.47,-0.466601748669613,0
1.473,-0.2746118585895136,0
1.475,-0.076206498656911,0
1.476,0.1289651915070784,0
1.479,0.3297344292559069,0
1.48,0.5081436457791906,0
1.483,0.6557434447178001,0
1.484,0.7680145659150277,0
1.486,0.8393807922330323,0
1.488,0.868806547635147,0
1.491,0.8592718762095736,0
1.493,0.8165386829549814,0
1.495,0.7496088079824793,0
1.496,0.6745399241433548,0
1.499,0.5998735710818917,0
1.5,0.5334323065911135,0
1.503,0.4809738366394199,0
1.503,0.4413263701590251,0
1.505,0.4123939751569312,0
1.507,0.3904772733604534,0
1.51,0.373935994887708,0
1.512,0.3581967026200759,0
1.513,0.3407181862102312,0
1.516,0.3228766007873764,0
1.518,0.3058981668186672,0
1.519,0.2975991383517854,0
1.521,0.2997528475921413,0
1.523,0.3041184591236563,0
1.526,0.3131098271344966,0
1.528,0.3155492119564028,0
1.529,0.3094308517686338,0
1.532,0.3016990680152436,0
1.534,0.2888977477637448,0
1.536,0.2769282693487836,0
1.537,0.2662841871412021,0
1.539,0.2508669426151314,0
1.542,0.231828036932148,0
1.543,0.2164433521071298,0
1.544,0.2044291666025784,0
1.547,0.1929335667737473,0
1.549,0.1835967522744436,0
1.551,0.170466289197645,0
1.552,0.1530512601737256,0
1.555,0.1355504633549226,0
1.556,0.1165204910946339,0
1.559,0.1013132782633134,0
1.56,0.0908126536949083,0
1.562,0.081369218982617,0
1.564,0.0745474937594918,0
1.567,0.0681017706198516,0
1.569,0.0617093334430413,0
1.571,0.057856366625873,0
1.572,0.0560562395729585,0
1.575,0.0514933754659627,0
1.576,0.0440776734523728,0
1.578,0.0357938782666647,0
1.58,0.0254206070094548,0
1.583,0.0163558731763808,0
1.585,0.0088058879419371,0
1.587,5.169635748618817e-05,0
1.588,-0.0091711995315726,0
1.59,-0.0165831383867158,0
1.592,-0.0222838114913363,0
1.593,-0.0268433769690713,0
1.595,-0.0297035643723083,0
1.598,-0.0328666252946453,0
1.599,-0.0363849038228133,0
1.601,-0.0387847193325951,0
1.604,-0.0404806597358332,0
1.606,-0.0430275043630725,0
1.608,-0.0464104355716315,0
1.609,-0.0501783074309269,0
1.611,-0.0547317845750164,0
1.614,-0.0587725741978157,0
1.615,-0.0622682190800914,0
1.617,-0.0662162453146276,0
1.619,-0.0703547721304487,0
1.622,-0.0739443129588572,0
1.624,-0.0770379400014671,0
1.625,-0.0798167002022303,0
1.628,-0.08210985118989,0
1.628,-0.0846282718910924,0
1.631,-0.0874010217453549,0
1.632,-0.0899365016139162,0
1.634,-0.092392398766942,0
1.636,-0.0943635745254508,0
1.639,-0.0957615890493343,0
1.641,-0.096891998400524,0
1.643,-0.0976293306052907,0
1.644,-0.0980859693081225,0
1.647,-0.0982836336949157,0
1.648,-0.0980531149346686,0
1.651,-0.0974151616279428,0
1.652,-0.0968063737220759,0
1.654,-0.096237020878331,0
1.656,-0.0955069930586581,0
1.659,-0.0947250732823913,0
1.661,-0.0935914982266346,0
1.663,-0.0920817497759528,0
1.664,-0.0904337884725216,0
1.667,-0.08857897429957,0
1.668,-0.0869635206932586,0
1.67,-0.0856598855225928,0
1.671,-0.0844100776101443,0
1.673,-0.0833509771311113,0
1.676,-0.0822821353461908,0
1.678,-0.0811918928485282,0
1.68,-0.0803073189537523,0
1.681,-0.0795951599358177,0
1.684,-0.0786410933671695,0
1.686,-0.0774467167988064,0
1.687,-0.0761974736877209,0
1.689,-0.0747955184764399,0
1.691,-0.0735535697703391,0
1.694,-0.0725001456503173,0
1.696,-0.0714038587710931,0
1.697,-0.0703404471818155,0
1.7,-0.0695054370061752,0
1.702,-0.0688985031516372,0
1.703,-0.0684874498350841,0
1.705,-0.0683271527559116,0
1.707,-0.0682598509985882,0
1.71,-0.0682915499669593,0
1.711,-0.068553972095575,0
1.712,-0.0690223360574909,0
1.715,-0.0696566886379602,0
1.717,-0.070476039190196,0
1.719,-0.0714904240932622,0
1.72,-0.0726993618407501,0
1.723,-0.0741751447773198,0
1.724,-0.0759286314418352,0
1.726,-0.0779304445463028,0
1.728,-0.0802040260995247,0
1.73,-0.0817202185795745,0
1.733,-0.0823787112721522,0
1.735,-0.0826851654586101,0
1.736,-0.0823465764416275,0
1.739,-0.0819573408681876,0
1.74,-0.0815488733675546,0
1.743,-0.0805615381565524,0
1.744,-0.079109037851798,0
1.746,-0.0779546282428035,0
1.748,-0.077086056211362,0
1.751,-0.0762035075301691,0
1.753,-0.0754886368000544,0
1.753,-0.0743355354257572,0
1.756,-0.0727007078204345,0
1.758,-0.071030083587389,0
1.759,-0.0691830120683427,0
1.761,-0.067534187398459,0
1.763,-0.0661651471359174,0
1.766,-0.0647948794611054,0
1.767,-0.0635396829474544,0
1.769,-0.0625919872307813,0
1.772,-0.0619627890493935,0
1.774,-0.061660608148582,0
1.776,-0.0617519648452237,0
1.777,-0.0602960286647889,0
1.779,-0.057133863418562,0
1.782,-0.0528738531582376,0
1.783,-0.0469461732505141,0
1.785,-0.0496273762521369,0
1.788,-0.0577520359112851,0
1.79,-0.0562551965759835,0
1.792,-0.0446396335281897,0
1.793,-0.0400582685275507,0
1.795,-0.0440159659998726,0
1.796,-0.0424892271480658,0
1.799,-0.0396854268806735,0
1.8,-0.0377341967103796,0
1.802,-0.0353866782161032,0
1.804,-0.034599182886523,0
1.807,-0.0317535931609411,0
1.809,-0.030398416406292,0
1.811,-0.0293271323622279,0
1.812,-0.0284992484713751,0
1.815,-0.028052236505397,0
1.816,-0.0278297312871389,0
1.819,-0.0278271748561384,0
1.82,-0.0278655327678478,0
1.822,-0.0278862036535971,0
1.825,-0.0209147916676185,0
1.827,-0.0021291950512711,0
1.828,0.0210163431296074,0
1.831,0.0524654059695382,0
1.832,0.0865532103434222,0
1.835,0.1230749741243824,0
1.836,0.1676116055766604,0
1.838,0.2192118616966955,0
1.839,0.2578798456479269,0
1.841,0.2873879494607519,0
1.844,0.3113220430072336,0
1.846,0.3265454305870587,0
1.848,0.3626003367369985,0
1.849,0.4174643216325827,0
1.851,0.4809069449176579,0
1.854,0.551629368679839,0
1.855,0.6345869530775462,0
1.857,0.7265839109891437,0
1.859,0.8194256646472846,0
1.862,0.916087853489294,0
1.864,0.9984931078506618,0
1.865,1.0679785015422183,0
1.868,1.1388427474664538,0
1.87,1.208382132031304,0
1.871,1.2608536869264824,0
1.873,1.2932255499892678,0
1.875,1.3147031456495817,0
1.878,1.319960850712057,0
1.878,1.2942726631673291,0
1.881,1.2422896399775198,0
1.883,1.1766394076549755,0
1.884,1.1022217221095365,0
1.887,1.0382561172019964,0
1.888,0.9865658657222944,0
1.891,0.9318496015654644,0
1.892,0.8643786085178561,0
1.894,0.7563875903827461,0
1.896,0.5898760200875854,0
1.899,0.3621851052301184,0
1.901,0.0701568672992085,0
1.903,-0.2728887454339097,0
1.904,-0.641869449427633,0
1.907,-1.0066495512600473,0
1.908,-1.3313274448411092,0
1.911,-1.5839098203476996,0
1.912,-1.7441368765005474,0
1.914,-1.8060059914661413,0
1.916,-1.7787510341754575,0
1.919,-1.6846409043648076,0
1.92,-1.552059833850895,0
1.921,-1.4074451967217023,0
1.924,-1.2763831228340936,0
1.926,-1.1691224580987734,0
1.927,-1.0893178152145029,0
1.929,-1.031348100830217,0
1.931,-0.9863064725906886,0
1.934,-0.947341669596047,0
1.936,-0.907258687892671,0
1.937,-0.8675374532579071,0
1.94,-0.8289888757061281,0
1.942,-0.7910787129543523,0
1.944,-0.7542989601075778,0
1.945,-0.711481781475974,0
1.947,-0.6577799761749302,0
1.95,-0.5979056378531877,0
1.951,-0.5328018947555114,0
1.953,-0.4507162375672304,0
1.956,-0.358869781650463,0
1.958,-0.2804889532787103,0
1.96,-0.2188269613387802,0
1.961,-0.1763708756522112,0
1.963,-0.168681119797735,0
1.964,-0.2121723866606595,0
1.967,-0.3182567442249864,0
1.968,-0.4726383440318673,0
1.97,-0.6336572495620971,0
1.973,-0.7278608692777064,0
1.975,-0.6713622851252211,0
1.976,-0.4036567772037053,0
1.979,0.0783405120202399,0
1.98,0.7038038754004442,0
1.983,1.338968709482352,0
1.984,1.8218533381166968,0
1.986,2.0058861028942383,0
1.988,1.7962933214354626,0
1.991,1.1708620216866883,0
1.993,0.1853118256318675,0
1.995,-1.0327925004012006,0
1.996,-2.2999453510886467,0
1.999,-3.4040124712574324,0
2.0,-4.14326309858994,0
2.003,-4.370908226668409,1
2.003,-4.032334278875163,0
2.006,-3.181406668756776,0
2.007,-1.968531258324203,0
2.009,-0.6032982791529465,0
2.012,0.6954424490159965,0
2.014,1.7409260982830328,0
2.016,2.415645685011912,0
2.017,2.6768608700209797,0
2.019,2.554001002295812,0
2.022,2.134848448661239,0
2.023,1.5454046493478144,0
2.025,0.9260554362189242,0
2.028,0.4143667209827912,0
2.03,0.1095832332104116,0
2.032,0.0442944261263202,0
2.033,0.2032487535377762,0
2.036,0.5283362696763501,0
2.038,0.9108113389897236,0
2.039,1.2331617694615578,0
2.041,1.4161944944450615,0
2.043,1.4313298140504926,0
2.044,1.3007047336093107,0
2.047,1.086927137454729,0
2.049,0.8674295999858235,0
2.051,0.7084361210199316,0
2.052,0.6423461205510756,0
2.055,0.6586614383133518,0
2.056,0.7241074379692986,0
2.059,0.800393001835739,0
2.06,0.8481469766745298,0
2.062,0.843637155369896,0
2.064,0.7895412832350355,0
2.067,0.7050398102023216,0
2.069,0.614469628930442,0
2.071,0.5391899331041046,0
2.072,0.4909154800715834,0
2.075,0.4573588055471795,0
2.076,0.4294868084668806,0
2.078,0.4022844467530948,0
2.08,0.3624655086902311,0
2.083,0.3266913407667445,0
2.085,0.2962319976036688,0
2.087,0.2506147813227105,0
2.088,0.1987391606104109,0
2.089,0.1623769050944213,0
2.092,0.1431556866007769,0
2.094,0.1253916955243118,0
2.095,0.1149203727276249,0
2.097,0.107944395713376,0
2.099,0.1030729166439224,0
2.102,0.1065062071642594,0
2.104,0.1172916119012808,0
2.105,0.1170039017771265,0
2.108,0.1048798666711171,0
2.11,0.0891295561840748,0
2.111,0.0649463219698163,0
2.113,0.0421564176982812,0
2.115,0.021299628359729,0
2.118,-0.0051821785338391,0
2.119,-0.0391545396901146,0
2.121,-0.0532032795101658,0
2.124,-0.0519438498710967,0
2.126,-0.0554512919011431,0
2.128,-0.0608139880090936,0
2.128,-0.0682027629083003,0
2.131,-0.0768148493395874,0
2.132,-0.0757024226069533,0
2.134,-0.0631947840671315,0
2.136,-0.0634255643295516,0
2.139,-0.0748156495558615,0
2.141,-0.0829482832163656,0
2.143,-0.0960061880229065,0
2.144,-0.107579994346855,0
2.147,-0.1175569189529056,0
2.148,-0.1302851947868536,0
2.151,-0.1447251367583103,0
2.152,-0.1576873128918324,0
2.154,-0.1694659785774473,0
2.156,-0.1811650515602419,0
2.159,-0.1921227710788821,0
2.161,-0.203174180423295,0
2.163,-0.2186834375179506,0
2.164,-0.2330832858670416,0
2.167,-0.2484936878513665,0
2.168,-0.2653726014628568,0
2.169,-0.2836140749324649,0
2.171,-0.3033637397387764,0
2.174,-0.3248022416727407,0
2.176,-0.3492349476165207,0
2.177,-0.376935259300113,0
2.18,-0.4058621422434099,0
2.182,-0.4404935501808358,0
2.184,-0.466019947233223,0
2.185,-0.4869493531501581,0
2.187,-0.5196753323201018,0
2.19,-0.5645047957236043,0
2.191,-0.6120491001697318,0
2.193,-0.6607215673160629,0
2.196,-0.7064346889637608,0
2.198,-0.7452411898876009,0
2.2,-0.790802341294049,0
2.201,-0.8410525611255684,0
2.203,-0.8869336345826805,0
2.206,-0.9299887445484378,0
2.207,-0.9738829021605616,0
2.209,-1.0172355016453989,0
2.211,-1.060428785401426,0
2.212,-1.0989481138475727,0
2.215,-1.129225522147303,0
2.217,-1.1444737070408686,0
2.219,-1.1348830594392936,0
2.22,-1.0943635107951766,0
2.223,-1.0172840922471809,0
2.224,-0.901664131416001,0
2.226,-0.7505210314956087,0
2.228,-0.5685410521030819,0
2.23,-0.363122062997693,0
2.233,-0.1439149723310522,0
2.235,0.0776633797879176,0
2.236,0.2926411972488129,0
2.239,0.4901446473388035,0
2.24,0.6602885047687932,0
2.243,0.7959122485474671,0
2.244,0.891427766179579,0
2.246,0.9459590213238722,0
2.248,0.9609136438876904,0
2.251,0.9404035393748292,0
2.253,0.8927749710499631,0
2.254,0.8298409197258625,0
2.256,0.7587965709536417,0
2.257,0.6892793051755015,0
2.259,0.6300850151673456,0
2.262,0.5843075744218268,0
2.263,0.5535011298439405,0
2.265,0.533878813162805,0
2.267,0.5224924542654451,0
2.27,0.5083074817845954,0
2.272,0.4875150350339717,0
2.273,0.4717487892148292,0
2.276,0.456800485579975,0
2.278,0.4412257451986128,0
2.279,0.4255665642430338,0
2.281,0.4068721182003356,0
2.283,0.3845487239417219,0
2.286,0.3710702242558411,0
2.288,0.366578504104816,0
2.289,0.3642533657747222,0
2.292,0.3669482581289023,0
2.294,0.3591526554428015,0
2.295,0.3389893077486853,0
2.296,0.3160301239355356,0
2.299,0.2859666018916601,0
2.3,0.2561739413349064,0
2.302,0.2275548220815344,0
2.304,0.1927429114797054,0
2.307,0.1533670984603529,0
2.309,0.1283644826229207,0
2.311,0.118586829551542,0
2.312,0.1161744942743034,0
2.315,0.1261955059134561,0
2.316,0.1359679123886608,0
2.319,0.1449095060630371,0
2.32,0.16378175136319,0
2.322,0.1900331460194939,0
2.325,0.2013738069215598,0
2.327,0.1970485402531328,0
2.328,0.1859687489447913,0
2.331,0.1622460554866867,0
2.332,0.1417223241836059,0
2.335,0.1251368534405863,0
2.336,0.099481635762849,0
2.337,0.0680158906957804,0
2.339,0.0434635346787344,0
2.342,0.0253752987967461,0
2.344,0.0098317567311295,0
2.345,-0.0001047780612148,0
2.348,-0.0153397269508425,0
2.35,-0.0363700511054904,0
2.351,-0.0552413286653635,0
2.353,-0.0743389040729152,0
2.355,-0.0906971209060552,0
2.358,-0.1031609324705679,0
2.359,-0.1148121558529097,0
2.361,-0.1245864070586953,0
2.364,-0.132184213419706,0
2.366,-0.1377797394969069,0
2.368,-0.140516275499982,0
2.369,-0.1402719364509669,0
2.371,-0.1416260890547487,0
2.374,-0.1447480820941094,0
2.375,-0.1472708076705401,0
2.377,-0.1503271848568951,0
2.378,-0.150974405192747,0
2.381,-0.1488989611177788,0
2.383,-0.1464673068223672,0
2.384,-0.1429701850089713,0
2.387,-0.1408927082536185,0
2.388,-0.1407360862435234,0
2.391,-0.1408037958248401,0
2.392,-0.1418721010315886,0
2.394,-0.1430066206682835,0
2.396,-0.1441006879853277,0
2.399,-0.1463315430443554,0
2.401,-0.1495329196532976,0
2.403,-0.1508401808772413,0
2.404,-0.1501892246150329,0
2.407,-0.1488747754130312,0
2.408,-0.1461816882761266,0
2.411,-0.1441144592553023,0
2.412,-0.1428320696977262,0
2.414,-0.1407520554665145,0
2.416,-0.1383320398253318,0
2.419,-0.1361114112829404,0
2.42,-0.1339697469278845,0
2.422,-0.1319842151728875,0
2.424,-0.1302665541053197,0
2.425,-0.1281414796198273,0
2.427,-0.125619336078752,0
2.43,-0.1231314813233308,0
2.431,-0.1205437791697818,0
2.433,-0.1180891212536492,0
2.436,-0.1158365504436002,0
2.438,-0.1135867757171324,0
2.44,-0.1114178718364832,0
2.441,-0.1093265203267231,0
2.444,-0.1073041361493654,0
2.446,-0.1054262068746554,0
2.447,-0.1036982660529327,0
2.449,-0.1023379868496764,0
2.451,-0.1013917277771887,0
2.454,-0.1007730515010763,0
2.456,-0.1005608638023279,0
2.457,-0.1006608888002924,0
2.46,-0.1010862915802694,0
2.462,-0.1019676269045514,0
2.463,-0.1033030045437374,0
2.464,-0.1048996435728756,0
2.467,-0.1067738796487339,0
2.468,-0.1090344539789528,0
2.47,-0.1116476688326215,0
2.473,-0.1147885665085283,0
2.475,-0.1184872243960975,0
2.476,-0.1226417274299727,0
2.479,-0.1273063299461242,0
2.48,-0.1299695884017253,0
2.483,-0.1303767116102445,0
2.484,-0.1297547206350421,0
2.486,-0.1273820432557482,0
2.488,-0.124696796171572,0
2.491,-0.1217682183193449,0
2.493,-0.117226106037317,0
2.495,-0.1113394494091833,0
2.496,-0.1059859729044115,0
2.499,-0.1011308876761202,0
2.5,-0.0960237865726999,0
2.503,-0.0911071052215191,0
2.503,-0.084882660203157,0
2.505,-0.0772363107272728,0
2.507,-0.0692608879269973,0
2.51,-0.0606035391768191,0
2.512,-0.0530647119475513,0
2.513,-0.046930031427204,0
2.516,-0.041087772699856,0
2.518,-0.0360756238913077,0
2.519,-0.0310959271046902,0
2.521,-0.0260742776982725,0
2.523,-0.0218938242653125,0
2.526,-0.0184038380465119,0
2.528,-0.0139532797795622,0
2.529,-0.0085307484472413,0
2.532,-0.0028461834669373,0
2.534,0.0035042811913731,0
2.536,0.009310917479179,0
2.537,0.0144807636982734,0
2.539,0.0199421647234056,0
2.542,0.0254166216892822,0
2.543,0.0323181155178285,0
2.544,0.040889695340303,0
2.547,0.0502659081142125,0
2.549,0.0608804339891995,0
2.551,0.0721347230276673,0
2.552,0.0839827246276546,0
2.555,0.0971319983340667,0
2.556,0.1114810252736017,0
2.559,0.1229317314450178,0
2.56,0.1312009151499206,0
2.562,0.1385488035515724,0
2.564,0.1438913814326097,0
2.567,0.1480633046961511,0
2.569,0.1550188878770926,0
2.571,0.1594215223734832,0
2.572,0.1631616317972673,0
2.575,0.2023340366298646,0
2.576,0.2804159249819291,0
2.578,0.3844727539954163,0
2.58,0.5179791971002836,0
2.583,0.6462870284961103,0
2.585,0.764340342054949,0
2.587,0.8846352093098123,0
2.588,0.9960071698464942,0
2.59,1.0896165382246852,0
2.592,1.165448102159068,0
2.593,1.225799976908309,0
2.595,1.267904855568733,0
2.598,1.2980794981685402,0
2.599,1.3160402744551798,0
2.601,1.3145671666794536,0
2.604,1.2944012860267506,0
2.606,1.250111760520837,0
2.608,1.1860008266579278,0
2.609,1.1133520295204942,0
2.611,1.0431181534729912,0
2.614,0.977982297675955,0
2.615,0.9230291144024968,0
2.617,0.8888512937711859,0
2.619,0.8617005554111294,0
2.622,0.807451343896083,0
2.624,0.7049126029923394,0
2.625,0.5415622093694938,0
2.628,0.3046783144144541,0
2.628,-0.0049893103037689,0
2.631,-0.3694973926472381,0
2.632,-0.7588902709928407,0
2.634,-1.135790972570138,0
2.636,-1.4634194101875106,0
2.639,-1.7074374265683343,0
2.641,-1.8513880608218412,0
2.643,-1.8924450137851587,0
2.644,-1.844973597804688,0
2.647,-1.7349263462182514,0
2.648,-1.5929617650534973,0
2.651,-1.4468906545247004,0
2.652,-1.3161391841182015,0
2.654,-1.209300312606448,0
2.656,-1.1255530873051065,0
2.659,-1.0585457888570189,0
2.661,-0.9999599712317948,0
2.663,-0.9454816158399864,0
2.664,-0.893515234388368,0
2.667,-0.8453091969512768,0
2.668,-0.8051556606142444,0
2.67,-0.7735620547194668,0
2.671,-0.7424312291764649,0
2.673,-0.7080210444736746,0
2.676,-0.6677021574152119,0
2.678,-0.6168198450321276,0
2.68,-0.5560879523131469,0
2.681,-0.4865826798560892,0
2.684,-0.4069802004575132,0
2.686,-0.3301085505868105,0
2.687,-0.2801605098062366,0
2.689,-0.2816770385964104,0
2.691,-0.3551679353328559,0
2.694,-0.5040791834443136,0
2.696,-0.6979932827405988,0
2.697,-0.8671067457507193,0
2.7,-0.914252129700682,0
2.702,-0.74553570275611,0
2.703,-0.3103951039646354,0
2.705,0.3667602103420908,0
2.707,1.1797032965360992,0
2.71,1.963378490991721,0
2.711,2.5374669149049702,0
2.712,2.75832688508114,0
2.715,2.5435791154915224,0
2.717,1.8904844956262412,0
2.719,0.8673161917607315,0
2.72,-0.3982941883663036,0
2.723,-1.734926212370382,0
2.724,-2.947386136240138,0
2.726,-3.84485353722508,0
2.728,-4.276289160305303,1
2.73,-4.165249145914991,0
2.733,-3.5303705923120106,0
2.735,-2.4841172327501315,0
2.736,-1.2085488985054869,0
2.739,0.0854913458946923,0
2.74,1.2016147571005829,0
2.743,1.9942884632394455,0
2.744,2.391976575760559,0
2.746,2.403862713180132,0
2.748,2.110692910872393,0
2.751,1.6418432534045295,0
2.753,1.1420260950714194,0
2.753,0.7346970581633883,0
2.756,0.4933258161551975,0
2.758,0.4290434003883712,0
2.759,0.4986716358604324,0
2.761,0.6318911924695214,0
2.763,0.7573956897861925,0
2.766,0.8279313766337336,0
2.767,0.8333713474073325,0
2.769,0.7914145004962666,0
2.772,0.7351621983698167,0
2.774,0.6957764078991774,0
2.776,0.6881244630342365,0
2.777,0.7064423346439415,0
2.779,0.7359348717707979,0
2.782,0.7585403360100573,0
2.783,0.7630271748599743,0
2.785,0.7492398384192406,0
2.788,0.7222120336685693,0
2.79,0.6855914958059665,0
2.792,0.6500135973072201,0
2.793,0.6080101089039035,0
2.795,0.5619892708507518,0
2.796,0.5160625102079301,0
2.799,0.4659411203568727,0
2.8,0.4265173091749296,0
2.802,0.3981429655117056,0
2.804,0.3603782250837475,0
2.807,0.3113781263657835,0
2.809,0.2783162156104961,0
2.811,0.257215256518695,0
2.812,0.2326612020174258,0
2.815,0.2177445141525823,0
2.816,0.1896941550243909,0
2.819,0.1556899761789642,0
2.82,0.1458172906120517,0
2.822,0.1541876933766278,0
2.825,0.1746830867777905,0
2.827,0.1989945950088934,0
2.828,0.2092126709486874,0
2.831,0.196766598381142,0
2.832,0.1637136827894471,0
2.835,0.112937488555452,0
2.836,0.0498343817014362,0
2.838,-0.0124512292887531,0
2.839,-0.0507695138100311,0
2.841,-0.0589211052475877,0
2.844,-0.0409651949314714,0
2.846,-0.0018564253644482,0
2.848,0.0316611886578655,0
2.849,0.0471797409763797,0
2.851,0.0471707995619706,0
2.854,0.0277412931333001,0
2.855,-0.0091690578628076,0
2.857,-0.0521729500052821,0
2.859,-0.0902181853592844,0
2.862,-0.1153071235025108,0
2.864,-0.1222662126481381,0
2.865,-0.1149615058755598,0
2.868,-0.1044162371113739,0
2.87,-0.1002651621099634,0
2.871,-0.1005572259586141,0
2.873,-0.1076733393562333,0
2.875,-0.1301204925243677,0
2.878,-0.1583486321344007,0
2.878,-0.1899655994828865,0
2.881,-0.2217761915590188,0
2.883,-0.2438774961423578,0
2.884,-0.2619803192772848,0
2.887,-0.261382343361856,0
2.888,-0.2493709886115529,0
2.891,-0.2458126806373883,0
2.892,-0.2530437922212506,0
2.894,-0.2777980609219201,0
2.896,-0.3179914663705519,0
2.899,-0.3570754450533506,0
2.901,-0.3902674004762634,0
2.903,-0.4243542171039117,0
2.904,-0.4585810830075275,0
2.907,-0.4822509249731846,0
2.908,-0.5025594219445119,0
2.911,-0.5321213325357477,0
2.912,-0.5733012765924804,0
2.914,-0.6167262754512145,0
2.916,-0.6607236696199438,0
2.919,-0.7034790678167134,0
2.92,-0.7413291846287373,0
2.921,-0.7806400724399963,0
2.924,-0.819391399573924,0
2.926,-0.85808391024299,0
2.927,-0.8972355500542173,0
2.929,-0.9344295923885808,0
2.931,-0.9697603226378184,0
2.934,-1.0171946484119625,0
2.936,-1.07211017636183,0
2.937,-1.1183352170842549,0
2.94,-1.1499192318883384,0
2.942,-1.1532165260303946,0
2.944,-1.1186761425350051,0
2.945,-1.051208462055901,0
2.947,-0.9479168942394108,0
2.95,-0.7986182209240963,0
2.951,-0.6104842737910677,0
2.953,-0.3980714401567276,0
2.956,-0.1702174778787047,0
2.958,0.0609805734151312,0
2.96,0.2848206839545268,0
2.961,0.4894722212291458,0
2.963,0.663811114693198,0
2.964,0.8002697236909151,0
2.967,0.8931561167283396,0
2.968,0.9412426305067004,0
2.97,0.9473085752772074,0
2.973,0.918438123168162,0
2.975,0.8647831091847282,0
2.976,0.7991617013515341,0
2.979,0.7307998457478422,0
2.98,0.6757838820025395,0
2.983,0.6393706330946816,0
2.984,0.6206751287549713,0
2.986,0.6182252401282616,0
2.988,0.6168485659408857,0
2.991,0.6091658699869635,0
2.993,0.5968002392863703,0
2.995,0.5713829700182719,0
2.996,0.543185605436191,0
2.999,0.5146442807329753,0
3.0,0.4852830460906579,0
3.003,0.4589409445586705,0
3.003,0.4360653906228087,0
3.006,0.4188704166417629,0
3.007,0.4091088817408145,0
3.009,0.4085261474344261,0
3.012,0.3936065467096233,0
3.014,0.3635189496303662,0
3.016,0.3319043892608368,0
3.017,0.2931715422419378,0
3.019,0.2565773018383604,0
3.022,0.2236768671122422,0
3.023,0.1855286000230542,0
3.025,0.1444406423866435,0
3.028,0.1160212011055392,0
3.03,0.1007545661073735,0
3.032,0.0930122178224285,0
3.033,0.0969789624801579,0
3.036,0.1019401894541641,0
3.038,0.1076219134034962,0
3.039,0.1231036528193113,0
3.041,0.146348243708959,0
3.043,0.1556692904004042,0
3.044,0.1502090574378681,0
3.047,0.1390047390553377,0
3.049,0.1163155026731428,0
3.051,0.0973515672082642,0
3.052,0.0829019617582446,0
3.055,0.0604206326880302,0
3.056,0.0330721740286289,0
3.059,0.0140982250963227,0
3.06,0.0031808133471224,0
3.062,-0.0038752059635637,0
3.064,-0.003820026458751,0
3.067,-0.0076672127046854,0
3.069,-0.0158892881019029,0
3.071,-0.0202816940235779,0
3.072,-0.0232118252337815,0
3.075,-0.0278973310614836,0
3.076,-0.0337380379720041,0
3.078,-0.0408655253649846,0
3.08,-0.0499632467378592,0
3.083,-0.057060093767998,0
3.085,-0.0621464414024365,0
3.087,-0.0677639475207983,0
3.088,-0.073085347340939,0
3.089,-0.0782669884902768,0
3.092,-0.0835662383696479,0
3.094,-0.0883218801577552,0
3.095,-0.0926184770001978,0
3.097,-0.0970685700209936,0
3.099,-0.1016096500681529,0
3.102,-0.1060070837998082,0
3.104,-0.1103769209422806,0
3.105,-0.1134905259406418,0
3.108,-0.1152188751756885,0
3.11,-0.1162239237992112,0
3.111,-0.116160638168125,0
3.113,-0.1156457445619707,0
3.115,-0.1147258386410259,0
3.118,-0.1127881062410692,0
3.119,-0.1099533098742258,0
3.121,-0.107001395388817,0
3.124,-0.1039116233630484,0
3.126,-0.1003797982453297,0
3.128,-0.0965872938883906,0
3.128,-0.0919085896889778,0
3.131,-0.0862963908834312,0
3.132,-0.0802032727546337,0
3.134,-0.0734815831980071,0
3.136,-0.0689196463633839,0
3.139,-0.0668451360921786,0
3.141,-0.0658411468351128,0
3.143,-0.0667247069946384,0
3.144,-0.0679960737305339,0
3.147,-0.0695841519484189,0
3.148,-0.0729837413909472,0
3.151,-0.0779247085580708,0
3.152,-0.0822305283988089,0
3.154,-0.0859394747964645,0
3.156,-0.0899574578223493,0
3.159,-0.0937760991165713,0
3.161,-0.0991173613152332,0
3.163,-0.1061246253138167,0
3.164,-0.1135477656296079,0
3.167,-0.1217999103281748,0
3.168,-0.1269075509919394,0
3.169,-0.1283529500610251,0
3.171,-0.1283156260370587,0
3.174,-0.1256281364875847,0
3.176,-0.1223108131834403,0
3.177,-0.1184938330685699,0
3.18,-0.1121111091443773,0
3.182,-0.1035376964755313,0
3.184,-0.0961394250252494,0
3.185,-0.0899026152512175,0
3.187,-0.0834159292926243,0
3.19,-0.0774884544809123,0
3.191,-0.0695569825288514,0
3.193,-0.0594222859674855,0
3.196,-0.0490041719044073,0
3.198,-0.0377042576292931,0
3.2,-0.0296882817523681,0
3.201,-0.0255735459584972,0
3.203,-0.022963056536056,0
3.206,-0.0231040996709761,0
3.207,-0.0240330307509714,0
3.209,-0.0256145722115196,0
3.211,-0.0299674189352251,0
3.212,-0.0367386087278426,0
3.215,-0.0421851877017322,0
3.217,-0.0463091520343392,0
3.219,-0.0507297299466686,0
3.22,-0.0545477133856272,0
3.223,-0.0605726563355673,0
3.224,-0.0690355689307322,0
3.226,-0.0778257567983399,0
3.228,-0.0876050934469404,0
3.23,-0.0940995758971555,0
3.233,-0.096664842732754,0
3.235,-0.0978000167880366,0
3.236,-0.0962254180597573,0
3.239,-0.0939345757809244,0
3.24,-0.0910747948362665,0
3.243,-0.0854857615589451,0
3.244,-0.0775299133906688,0
3.246,-0.0711278826641153,0
3.248,-0.0662902353444221,0
3.251,-0.0613219031960694,0
3.253,-0.0571717690498678,0
3.254,-0.0509227816920122,0
3.256,-0.0423404841823745,0
3.257,-0.0336341506146633,0
3.259,-0.0241221953728978,0
3.262,-0.0171668498480501,0
3.263,-0.0133348992551491,0
3.265,-0.010544106387541,0
3.267,-0.0098159442820029,0
3.27,-0.009709825846476,0
3.272,-0.0101015634625064,0
3.273,-0.0126426690139443,0
3.276,-0.017074870785106,0
3.278,-0.0201046089687794,0
3.279,-0.0217034969586717,0
3.281,-0.023325154409161,0
3.283,-0.024166515244429,0
3.286,-0.0266288887787029,0
3.288,-0.0309082070507758,0
3.289,-0.0351652757578012,0
3.292,-0.039959721912136,0
3.294,-0.0427422880371831,0
3.295,-0.0430624348816042,0
3.296,-0.0425281260675081,0
3.299,-0.0403579902625782,0
3.3,-0.0376050774095526,0
3.302,-0.0343628251936399,0
3.304,-0.0293897389649609,0
3.307,-0.0228710057105607,0
3.309,-0.0179412900352412,0
3.311,-0.0146846324643251,0
3.312,-0.0116901759342773,0
3.315,-0.0097491599838571,0
3.316,-0.0066752050529864,0
3.319,-0.0023023221382184,0
3.32,0.0016278332903044,0
3.322,0.0056080561839874,0
3.325,0.0098607812017191,0
3.327,0.0142086521783972,0
3.328,0.0188960414258096,0
3.331,0.0239320643873291,0
3.332,0.0287121616856877,0
3.335,0.0332397495317632,0
3.336,0.0378089621592318,0
3.337,0.0422827216873921,0
3.339,0.049819868569147,0
3.342,0.0607500979600109,0
3.344,0.0735729529834792,0
3.345,0.0892025182749109,0
3.348,0.1243017797787132,0
3.35,0.1807011505931446,0
3.351,0.2532785770976349,0
3.353,0.3422445341911528,0
3.355,0.4499630149479535,0
3.358,0.5684602031114623,0
3.359,0.6860156148470566,0
3.361,0.7975484514871458,0
3.364,0.9001421773448876,0
3.366,0.9914018595413971,0
3.368,1.060423941398542,0
3.369,1.1079683537335343,0
3.371,1.153194991386297,0
3.374,1.1953382424678047,0
3.375,1.215859821914285,0
3.377,1.2178287212115342,0
3.378,1.2114233109057262,0
3.381,1.1942020409935048,0
3.383,1.1598041870943223,0
3.384,1.1137916799513683,0
3.387,1.0648786134792845,0
3.388,1.0152361025241146,0
3.391,0.9609419948037636,0
3.392,0.8992525096049807,0
3.394,0.85520223495138,0
3.396,0.8152490413303898,0
3.399,0.7441396296543102,0
3.401,0.6305985370059345,0
3.403,0.4549856870543828,0
3.404,0.2095661079539531,0
3.407,-0.0932305927957503,0
3.408,-0.438811919082525,0
3.411,-0.7978730842053665,0
3.412,-1.13755195005644,0
3.414,-1.430007208261925,0
3.416,-1.6447326021007274,0
3.419,-1.7762293738078576,0
3.42,-1.821462043220537,0
3.422,-1.7854762201574157,0
3.424,-1.691916671288242,0
3.425,-1.5620281192443433,0
3.427,-1.421314008074288,0
3.43,-1.2948578726771045,0
3.431,-1.1927566749069214,0
3.433,-1.1135664875544873,0
3.436,-1.053127720877172,0
3.438,-1.0049033868081676,0
3.44,-0.960771392997704,0
3.441,-0.9158319182091834,0
3.444,-0.8672309848313488,0
3.446,-0.8183211117197461,0
3.447,-0.7660704905642365,0
3.449,-0.7126471581078305,0
3.451,-0.6573550209497347,0
3.454,-0.5939691262321601,0
3.456,-0.521920906561877,0
3.457,-0.4542524834368484,0
3.46,-0.3902024438178456,0
3.462,-0.323316741333317,0
3.463,-0.2561320240113235,0
3.464,-0.2032275010477738,0
3.467,-0.1807065362381383,0
3.468,-0.2109584331314968,0
3.47,-0.3096816221854817,0
3.473,-0.4731900252867124,0
3.475,-0.6592540820692203,0
3.476,-0.7890294490070248,0
3.479,-0.7647422250748352,0
3.48,-0.5044781502270588,0
3.483,0.0189531415637874,0
3.484,0.7537765844360879,0
3.486,1.5725707793507382,0
3.488,2.3028066374164897,0
3.491,2.772228435272935,0
3.493,2.851016221893341,0
3.495,2.4779761661710045,0
3.496,1.6686790554047242,0
3.499,0.5109984021144377,0
3.5,-0.8462374919158642,0
3.503,-2.210507045718624,0
3.503,-3.3717061296763067,0
3.505,-4.138408970396143,0
3.507,-4.378445220849317,1
3.51,-4.05165380910839,0
3.512,-3.2225142393140005,0
3.513,-2.04529367295856,0
3.516,-0.7275316387339542,0
3.518,0.5162941578562378,0
3.519,1.508075507346855,0
3.521,2.1345281609604108,0
3.523,2.359003372628669,0
3.526,2.218430669964478,0
3.528,1.8086461312577309,0
3.529,1.2627677956907004,0
3.532,0.7256134909501982,0
3.534,0.3166144842262754,0
3.536,0.1159400861101389,0
3.537,0.1382503579779774,0
3.539,0.3389068682121938,0
3.542,0.6297853330770069,0
3.543,0.9112747740387608,0
3.544,1.1006776587986542,0
3.547,1.1558510110786828,0
3.549,1.0846836129783133,0
3.551,0.9321029980298454,0
3.552,0.7610095370000364,0
3.555,0.6283481734573053,0
3.556,0.5653784172947289,0
3.559,0.5708108259528435,0
3.56,0.6210939521953348,0
3.562,0.682521748558263,0
3.564,0.7230377283290832,0
3.567,0.7263858123930562,0
3.569,0.6915301652220613,0
3.571,0.629383469684093,0
3.572,0.558721654666498,0
3.575,0.4949297942345915,0
3.576,0.4481526329290736,0
3.578,0.4217174699687038,0
3.58,0.4107020901446865,0
3.583,0.3935261744247844,0
3.585,0.3602674243185266,0
3.587,0.3100070443925645,0
3.588,0.2347608164797497,0
3.59,0.181500231591969,0
3.592,0.1560376395065567,0
3.593,0.1356624451168508,0
3.595,0.138688174930742,0
3.598,0.1290161110917856,0
3.599,0.1072670667302427,0
3.601,0.1016360463029724,0
3.604,0.1000358191051804,0
3.606,0.1101559256294252,0
3.608,0.1268346959702437,0
3.609,0.1277893582893206,0
3.611,0.1093851559696739,0
3.614,0.077240253387791,0
3.615,0.0325702768768764,0
3.617,-0.0185873598228807,0
3.619,-0.0672352171692022,0
3.622,-0.0961017630033148,0
3.624,-0.1014464919386259,0
3.625,-0.0830803120230419,0
3.628,-0.0445318280604659,0
3.628,-0.0167091474111323,0
3.631,-0.0045810187452699,0
3.632,-0.0036453265300728,0
3.634,-0.016444973698553,0
3.636,-0.0456618483798761,0
3.639,-0.081295920508196,0
3.641,-0.1126768054710481,0
3.643,-0.1338727126466529,0
3.644,-0.1390739680121721,0
3.647,-0.1319407389931583,0
3.648,-0.1243966819306042,0
3.651,-0.1243406854455886,0
3.652,-0.1248760443871674,0
3.654,-0.1278725416506201,0
3.656,-0.1433496296893273,0
3.659,-0.1627519733098545,0
3.661,-0.1843639520495051,0
3.663,-0.2060284103612484,0
3.664,-0.2178320407298979,0
3.667,-0.2228099000749255,0
3.668,-0.224581888339618,0
3.67,-0.2282493613850894,0
3.671,-0.2398454361003437,0
3.673,-0.2640564287610998,0
3.676,-0.2872656152494537,0
3.678,-0.3064317066801743,0
3.68,-0.3223952672081523,0
3.681,-0.329901143963116,0
3.684,-0.3461398670882881,0
3.686,-0.3751144141706652,0
3.687,-0.3975607415522658,0
3.689,-0.4231711120742473,0
3.691,-0.4499038392480034,0
3.694,-0.4778526239257751,0
3.696,-0.510561500784514,0
3.697,-0.5422727539128561,0
3.7,-0.5784277221291589,0
3.702,-0.6173019216583961,0
3.703,-0.6589090424024227,0
3.705,-0.7035296846815252,0
3.707,-0.7515627176067012,0
3.71,-0.8031337498034541,0
3.711,-0.8584585094131161,0
3.712,-0.91775572473278,0
3.715,-0.9646624490029873,0
3.717,-0.9976855083057172,0
3.719,-1.026491746140382,0
3.72,-1.0423570971428378,0
3.723,-1.0339869404343514,0
3.724,-0.9937919242597396,0
3.726,-0.9128534044793136,0
3.728,-0.7823528059999177,0
3.73,-0.6009677136962835,0
3.733,-0.3754705881730204,0
3.735,-0.1243573287220049,0
3.736,0.1327720884501983,0
3.739,0.3753500329366359,0
3.74,0.5845769469291182,0
3.743,0.7468045751479321,0
3.744,0.8554515919282469,0
3.746,0.910398910909907,0
3.748,0.917044278770194,0
3.751,0.8848272739574091,0
3.753,0.8259346437632034,0
3.753,0.7535193623785281,0
3.756,0.6787841099210492,0
3.758,0.6127974621279819,0
3.759,0.561621376537244,0
3.761,0.529759438619748,0
3.763,0.515622603473736,0
3.766,0.5128324238151017,0
3.767,0.5147167269549883,0
3.769,0.5092921766395829,0
3.772,0.489656197725692,0
3.774,0.4641462427130863,0
3.776,0.432929108560502,0
3.777,0.3900167675185826,0
3.779,0.3432171387279067,0
3.782,0.3042497722227433,0
3.783,0.2771007135266257,0
3.785,0.2624814175732577,0
3.788,0.2603453551600409,0
3.79,0.2671838967658463,0
3.792,0.2787881815620157,0
3.793,0.2756177720675558,0
3.795,0.252273752892821,0
3.796,0.2215554958047492,0
3.799,0.1760219783345581,0
3.8,0.140466322216935,0
3.802,0.1165415464667104,0
3.804,0.0851868677638288,0
3.807,0.0520011228226596,0
3.809,0.0311596213165207,0
3.811,0.022039651761337,0
3.812,0.0220318057123638,0
3.815,0.0347493988327428,0
3.816,0.0483900520554028,0
3.819,0.063038523822833,0
3.82,0.0878482136141722,0
3.822,0.1206625017518013,0
3.825,0.1378512668571077,0
3.827,0.1383258166435979,0
3.828,0.1319730581267476,0
3.831,0.1124567309628377,0
3.832,0.0963039188961909,0
3.835,0.0843275262448012,0
3.836,0.0627632698388733,0
3.838,0.0350062672519615,0
3.839,0.0153785261420078,0
3.841,0.0034638511184908,0
3.844,-0.0053416206361572,0
3.846,-0.0075722706436538,0
3.848,-0.0152651517105291,0
3.849,-0.028994311553577,0
3.851,-0.0399064951144708,0
3.854,-0.0506376305800692,0
3.855,-0.0594840761674847,0
3.857,-0.065314814051489,0
3.859,-0.0707957000196047,0
3.862,-0.0751990581321562,0
3.864,-0.0772820382333354,0
3.865,-0.0771980675961072,0
3.868,-0.0748613541800195,0
3.87,-0.0699681866655568,0
3.871,-0.0665187910773351,0
3.873,-0.0647346728461557,0
3.875,-0.0624164718541709,0
3.878,-0.0605731710151659,0
3.878,-0.0568285985029181,0
3.881,-0.0509063785874146,0
3.883,-0.0448001125980129,0
3.884,-0.0379367163555267,0
3.887,-0.0328849704297528,0
3.888,-0.0301293956540906,0
3.891,-0.0280442075436174,0
3.892,-0.0274331857127874,0
3.894,-0.0272413646614684,0
3.896,-0.0273844499238155,0
3.899,-0.0291342277683764,0
3.901,-0.0323143368672384,0
3.903,-0.0341401818448171,0
3.904,-0.0345777134060401,0
3.907,-0.0348901897306963,0
3.908,-0.0343983731753711,0
3.911,-0.0351118505069649,0
3.912,-0.0372031549220539,0
3.914,-0.0391295799618987,0
3.916,-0.0413636511596955,0
3.919,-0.0428013193666674,0
3.92,-0.043173284222827,0
3.921,-0.0433499643792723,0
3.924,-0.0429791529410164,0
3.926,-0.0423592358640926,0
3.927,-0.0415520207728923,0
3.929,-0.0400883642004388,0
3.931,-0.038022793400559,0
3.934,-0.0367831193083979,0
3.936,-0.0364185452745624,0
3.937,-0.0362695595491432,0
3.94,-0.0366996852927344,0
3.942,-0.0367530385530975,0
3.944,-0.0363556730577172,0
3.945,-0.0362854341018451,0
3.947,-0.0363285840575857,0
3.95,-0.0366704908557364,0
3.951,-0.0374233002817287,0
3.953,-0.0383520743274448,0
3.956,-0.0395387983103501,0
3.958,-0.0410658620088854,0
3.96,-0.0429277081471612,0
3.961,-0.0451672720536259,0
3.963,-0.0478127046910865,0
3.964,-0.0504335101381786,0
3.967,-0.0530132300656051,0
3.968,-0.0557901646638929,0
3.97,-0.0586598952824766,0
3.973,-0.0618977388627384,0
3.975,-0.0655386230111374,0
3.976,-0.0693651950052073,0
3.979,-0.0734474907269075,0
3.98,-0.0767880356694617,0
3.983,-0.0792646901336852,0
3.984,-0.0813995355393146,0
3.986,-0.0828998454162789,0
3.988,-0.0842978647825772,0
3.991,-0.0856223751694976,0
3.993,-0.0863413342061364,0
3.995,-0.0865523476309375,0
3.996,-0.0870820486358119,0
3.999,-0.0879231523783176,0
4.0,-0.0887312514348231,0
4.003,-0.0897032957587591,0
4.003,-0.0901996240285993,0
4.006,-0.0901696995337336,0
4.007,-0.0900873341518888,0
4.009,-0.08980195940486,0
4.012,-0.0894019729601537,0
4.014,-0.088941290645621,0
4.016,-0.0882640073779991,0
4.017,-0.0874027157835261,0
4.019,-0.0864081069154395,0
4.022,-0.0852626991796953,0
4.023,-0.083968144938092,0
4.025,-0.0825303739802866,0
4.028,-0.0806967889195595,0
4.03,-0.0784444312076557,0
4.032,-0.0758950913769927,0
4.033,-0.0729775712230178,0
4.036,-0.0698287558459066,0
4.038,-0.0664552631718996,0
4.039,-0.0627247467461165,0
4.041,-0.0586625117475241,0
4.043,-0.0552428419313058,0
4.044,-0.0525436042349025,0
4.047,-0.0501209232550175,0
4.049,-0.0482482003394176,0
4.051,-0.0463267183910407,0
4.052,-0.044329750703395,0
4.055,-0.0428010829303861,0
4.056,-0.041625939995545,0
4.059,-0.0401459637021134,0
4.06,-0.038379358726033,0
4.062,-0.0365743378483224,0
4.064,-0.0345767285629569,0
4.067,-0.0329279757210316,0
4.069,-0.031666400922791,0
4.071,-0.0304014055428355,0
4.072,-0.0292595515654177,0
4.075,-0.0278036677351647,0
4.076,-0.0259530457582961,0
4.078,-0.0240086381035099,0
4.08,-0.0218384840525765,0
4.083,-0.0196082565030401,0
4.085,-0.0173405222979364,0
4.087,-0.0148345654396909,0
4.088,-0.0121230365952961,0
4.089,-0.0096677106373586,0
4.092,-0.0074794304745812,0
4.094,-0.0053556239818638,0
4.095,-0.0034127626841401,0
4.097,-0.0013292545594382,0
4.099,0.0009179451854827,0
4.102,0.0030721458512683,0
4.104,0.0052049936650071,0
4.105,0.007327457740754,0
4.108,0.0094105272376697,0
4.11,0.0114990279572475,0
4.111,0.0135874031991212,0
4.113,0.0160303072884116,0
4.115,0.0188723258419585,0
4.118,0.0219287785806252,0
4.119,0.0253053931660354,0
4.121,0.0267439109432091,0
4.124,0.0260223906083946,0
4.126,0.0237853487886727,0
4.128,0.0193434363370824,0
4.128,0.0270540072543959,0
4.131,0.042662699029304,0
4.132,0.0467438522242819,0
4.134,0.038870459597691,0
4.136,0.0329821907230951,0
4.139,0.0300235767313509,0
4.141,0.0272865474694725,0
4.143,0.0343926574620147,0
4.144,0.0321405553910187,0
4.147,0.0233245047164073,0
4.148,0.0198719735971472,0
4.151,0.013764189664424,0
4.152,0.0255753327043074,0
4.154,0.0563267627271732,0
4.156,0.0947047251438903,0
4.159,0.15219951000342,0
4.161,0.2088588959021581,0
4.163,0.2660532731398912,0
4.164,0.3378975845190649,0
4.167,0.414396468485172,0
4.168,0.5300234086946014,0
4.169,0.6768418427979713,0
4.171,0.8152937590140183,0
4.174,0.9459990502252572,0
4.176,1.0498483517444193,0
4.177,1.1205267327745436,0
4.18,1.1697559785351852,0
4.182,1.1985710129012594,0
4.184,1.216821470208167,0
4.185,1.229111672279788,0
4.187,1.2354239148462085,0
4.19,1.2354989934700853,0
4.191,1.2197033662334134,0
4.193,1.1871044345496322,0
4.196,1.1483428236421924,0
4.198,1.106442394802999,0
4.2,1.0554522446993098,0
4.201,0.9994287468081215,0
4.203,0.9425814731892008,0
4.206,0.8754594066584651,0
4.207,0.7874614745243367,0
4.209,0.661561985934012,0
4.211,0.4793114199599062,0
4.212,0.2320806619861831,0
4.215,-0.0775125419629294,0
4.217,-0.4348175007545221,0
4.219,-0.8127310303459674,0
4.22,-1.1760894257755266,0
4.223,-1.4886419003209557,0
4.224,-1.7183193286030445,0
4.226,-1.8475014972234696,0
4.228,-1.8740216623285653,0
4.23,-1.8126089889728791,0
4.233,-1.690721916115449,0
4.235,-1.5413231976603097,0
4.236,-1.394468913066408,0
4.239,-1.2710323812401816,0
4.24,-1.1790068667995866,0
4.243,-1.1141962826195988,0
4.244,-1.06466859072574,0
4.246,-1.017777527874648,0
4.248,-0.9646058612514572,0
4.251,-0.902845153351768,0
4.253,-0.8388683222959858,0
4.254,-0.781630979049931,0
4.256,-0.7389606504174389,0
4.257,-0.7129402502862708,0
4.259,-0.6970082395533744,0
4.262,-0.6735290373946909,0
4.263,-0.6294308709765565,0
4.265,-0.5592517784889852,0
4.267,-0.4609772036405136,0
4.27,-0.3553593881144843,0
4.272,-0.256371435637083,0
4.273,-0.1720556346321324,0
4.276,-0.1233948559231508,0
4.278,-0.1144487323045486,0
4.279,-0.1605028704901017,0
4.281,-0.2780598547563774,0
4.283,-0.4520699567014544,0
4.286,-0.6484569156891015,0
4.288,-0.7961066902715376,0
4.289,-0.7985216179153002,0
4.292,-0.5787016016901162,0
4.294,-0.1031828075867187,0
4.295,0.5873561350558651,0
4.296,1.371132559972913,0
4.299,2.073993996450205,0
4.3,2.5104384767417898,0
4.302,2.525987179354576,0
4.304,2.047752017104624,0
4.307,1.0981682801975063,0
4.309,-0.1985163830546853,0
4.311,-1.6362821434704535,0
4.312,-2.965381862734593,0
4.315,-3.943525993800197,0
4.316,-4.389374491364356,1
4.319,-4.224161071621902,0
4.32,-3.4885154096783357,0
4.322,-2.329169349810108,0
4.325,-0.9608208706352545,0
4.327,0.3848876262266504,0
4.328,1.5067280345877985,0
4.331,2.266634157621471,0
4.332,2.604787012680849,0
4.335,2.537747865397268,0
4.336,2.145884950774192,0
4.337,1.5545305716943612,0
4.339,0.9106330497170388,0
4.342,0.3560424647712401,0
4.344,0.0008815170529159,0
4.345,-0.0985334166785665,0
4.348,0.0485369509791019,0
4.35,0.3723076208171436,0
4.351,0.7638099627975989,0
4.353,1.1072130448475772,0
4.355,1.3146571927189763,0
4.358,1.3483186372498612,0
4.359,1.2266512952768711,0
4.361,1.0127667041678674,0
4.364,0.7870897669247844,0
4.366,0.6196819877734311,0
4.368,0.5488894829442924,0
4.369,0.572943268702267,0
4.371,0.658567043633325,0
4.374,0.7570371528447635,0
4.375,0.8237343936377082,0
4.377,0.8337313745571023,0
4.378,0.7861003640509245,0
4.381,0.7004278303869316,0
4.383,0.6064483549707921,0
4.384,0.5314972294576386,0
4.387,0.4784292898918892,0
4.388,0.4478992237540365,0
4.391,0.4357040779286261,0
4.392,0.4212782063858366,0
4.394,0.4114183457785325,0
4.396,0.393945025996244,0
4.399,0.3538276381238451,0
4.401,0.2989016095377533,0
4.403,0.2349409787080443,0
4.404,0.1700751069476993,0
4.407,0.1161428055479643,0
4.408,0.0809805114330058,0
4.411,0.0628663517808208,0
4.412,0.0623591229906581,0
4.414,0.0753380705073885,0
4.416,0.0971919513317309,0
4.419,0.10153200295808,0
4.42,0.081880909750772,0
4.422,0.0520043075133223,0
4.424,0.0077864686196543,0
4.425,-0.0235955395978086,0
4.427,-0.0381251317134956,0
4.43,-0.0589213983524826,0
4.431,-0.0831452544152686,0
4.433,-0.0912258007669453,0
4.436,-0.0900359273515337,0
4.438,-0.0920309152990018,0
4.44,-0.0967877977879611,0
4.441,-0.1010638736181945,0
4.444,-0.1031620330132676,0
4.446,-0.0959901794888393,0
4.447,-0.0769205976802614,0
4.449,-0.0713734417111939,0
4.451,-0.0783975030426781,0
4.454,-0.0819734524155447,0
4.456,-0.0914733585089565,0
4.457,-0.0971095692985284,0
4.46,-0.0986788778902392,0
4.462,-0.1039264280878828,0
4.463,-0.1070061856788174,0
4.464,-0.1285418670210906,0
4.467,-0.1645325995129843,0
4.468,-0.1934263328081177,0
4.47,-0.216243742729876,0
4.473,-0.2286643481266109,0
4.475,-0.229881009580488,0
4.476,-0.2304697803442766,0
4.479,-0.2298929700727023,0
4.48,-0.2368217972573395,0
4.483,-0.2547740852493187,0
4.484,-0.2799454443893906,0
4.486,-0.3122558813452492,0
4.488,-0.33865708369436,0
4.491,-0.3568541396231701,0
4.493,-0.3789909506833487,0
4.495,-0.4013418393773869,0
4.496,-0.4281276097625218,0
4.499,-0.4609614961284897,0
4.5,-0.4951169365385051,0
4.503,-0.5320410474248398,0
4.503,-0.571289676723033,0
4.505,-0.6123897409067637,0
4.507,-0.6567459308927129,0
4.51,-0.7041748967393098,0
4.512,-0.7487700655034093,0
4.513,-0.7901914789738248,0
4.516,-0.8291709241345186,0
4.518,-0.8681658381993608,0
4.519,-0.9042977638628856,0
4.521,-0.938861775148284,0
4.523,-0.9723692454776024,0
4.526,-0.9984541729472424,0
4.528,-1.0309428656957007,0
4.529,-1.061552627617654,0
4.532,-1.067387784943975,0
4.534,-1.0449564552424713,0
4.536,-0.9789513650068734,0
4.537,-0.8657899964122568,0
4.539,-0.7163188417159527,0
4.542,-0.5343008365041432,0
4.543,-0.33182854043095,0
4.544,-0.1210133397077618,0
4.547,0.0897603163953539,0
4.549,0.2891539756453413,0
4.551,0.4739180494591601,0
4.552,0.634340422644473,0
4.555,0.7570130430636811,0
4.556,0.8380252432027363,0
4.559,0.8874430700873149,0
4.56,0.9052152078475312,0
4.562,0.8892806307941544,0
4.564,0.8477330365265672,0
4.567,0.7920063235498105,0
4.569,0.727312539173944,0
4.571,0.6626262881944359,0
4.572,0.6054261538862251,0
4.575,0.5603455096370361,0
4.576,0.5289176975179853,0
4.578,0.5076429348131893,0
4.58,0.4943482650106588,0
4.583,0.4792525158814427,0
4.585,0.4591976089205263,0
4.587,0.4451917303798551,0
4.588,0.4337209350043103,0
4.59,0.4194852620593112,0
4.592,0.402880175961073,0
4.593,0.3835618728811651,0
4.595,0.3600709823408709,0
4.598,0.3458263386267757,0
4.599,0.3412985086640034,0
4.601,0.3385772520876442,0
4.604,0.3408167471162552,0
4.606,0.3332819501051847,0
4.608,0.3140560542754119,0
4.609,0.2925997533853311,0
4.611,0.2648020761139635,0
4.614,0.2374760071279802,0
4.615,0.2115459732908972,0
4.617,0.1801106279149552,0
4.619,0.1447103774306539,0
4.622,0.1229116394084375,0
4.624,0.1155061670127774,0
4.625,0.1152434406465582,0
4.628,0.1268310913224798,0
4.628,0.1385457116631659,0
4.631,0.1498664540394737,0
4.632,0.1707701627708165,0
4.634,0.1989120882318365,0
4.636,0.2121159401794633,0
4.639,0.2095386868254453,0
4.641,0.2001756674559003,0
4.643,0.1781384475482122,0
4.644,0.1590009681106609,0
4.647,0.1434944406435725,0
4.648,0.118731391730556,0
4.651,0.0879036172529494,0
4.652,0.0639272584220824,0
4.654,0.0463678445546644,0
4.656,0.0311546430553217,0
4.659,0.0213936959316339,0
4.661,0.0060841709173356,0
4.663,-0.0152975704203455,0
4.664,-0.0347211329887786,0
4.667,-0.0546040298189458,0
4.668,-0.0717405132821074,0
4.67,-0.0849490693239988,0
4.671,-0.0974547287744354,0
4.673,-0.1081268312816138,0
4.676,-0.1168029184139294,0
4.678,-0.1236724458914057,0
4.68,-0.1277542609011573,0
4.681,-0.1289578064455234,0
4.684,-0.1325458580138447,0
4.686,-0.138741743878734,0
4.687,-0.1448800333091149,0
4.689,-0.1522870230051495,0
4.691,-0.1576102857711454,0
4.694,-0.1605231742892257,0
4.696,-0.1636787432338618,0
4.697,-0.1662836423774856,0
4.7,-0.1672043428481616,0
4.702,-0.1666014757043099,0
4.703,-0.1622950142928657,0
4.705,-0.1581751113924824,0
4.707,-0.1523033526823418,0
4.71,-0.1460942750080925,0
4.711,-0.1381995873638648,0
4.712,-0.128922030968332,0
4.715,-0.1286958983746136,0
4.717,-0.1384544258811084,0
4.719,-0.1535084563843937,0
4.72,-0.1768507852590898,0
4.723,-0.1848662338471948,0
4.724,-0.1755574629868273,0
4.726,-0.1628904587133801,0
4.728,-0.140671663614617,0
4.73,-0.1195276353178109,0
4.733,-0.100848660611278,0
4.735,-0.0875874275307215,0
4.736,-0.0835391341440119,0
4.739,-0.0812085360438578,0
4.74,-0.08288154070062,0
4.743,-0.0970628403672075,0
4.744,-0.124001962799642,0
4.746,-0.1359410761042957,0
4.748,-0.132658059804671,0
4.751,-0.1290326883169044,0
4.753,-0.1186887474204718,0
4.753,-0.1166060509514289,0
4.756,-0.1248569906427982,0
4.758,-0.1312178656568629,0
4.759,-0.1395244838190479,0
4.761,-0.1439167132630537,0
4.763,-0.1426427537765894,0
4.766,-0.1414860031489999,0
4.767,-0.1385739465079239,0
4.769,-0.1351178408457337,0
4.772,-0.1317174274137008,0
4.774,-0.1261562965950915,0
4.776,-0.1188022691675068,0
4.777,-0.1126648133786272,0
4.779,-0.1076688420100318,0
4.782,-0.1026279709131834,0
4.783,-0.0982390432754232,0
4.785,-0.0923756988238583,0
4.788,-0.0848799866885445,0
4.79,-0.0773596660752532,0
4.792,-0.0693252516034683,0
4.793,-0.0632672283029541,0
4.795,-0.0596068650788109,0
4.796,-0.0568182429512869,0
4.799,-0.0556612113990564,0
4.8,-0.0550737759503902,0
4.802,-0.0549709900236698,0
4.804,-0.056580040837132,0
4.807,-0.0597156104212658,0
4.809,-0.0619753775477454,0
4.811,-0.063346982167965,0
4.812,-0.0648984114847893,0
4.815,-0.0660496043104349,0
4.816,-0.0685670967677684,0
4.819,-0.0726011463161533,0
4.82,-0.0768123599374003,0
4.822,-0.0816178151285788,0
4.825,-0.083697743120897,0
4.827,-0.0825792050005612,0
4.828,-0.0801294148743193,0
4.831,-0.0753580440623133,0
4.832,-0.069878668387386,0
4.835,-0.0637949964430386,0
4.836,-0.0553975165213206,0
4.838,-0.0449768471776678,0
4.839,-0.0354647821746906,0
4.841,-0.0268536948282341,0
4.844,-0.0178839652767548,0
4.846,-0.0092580161235709,0
4.848,0.0012412410659207,0
4.849,0.0137953704902991,0
4.851,0.0267455218571638,0
4.854,0.04061460308238,0
4.855,0.0500485895325564,0
4.857,0.0543372690271828,0
4.859,0.0563803286313502,0
4.862,0.0545921693647764,0
4.864,0.0516822356166431,0
4.865,0.0478064702362741,0
4.868,0.0401650851479427,0
4.87,0.029246532712808,0
4.871,0.0202091216547705,0
4.873,0.013083558489933,0
4.875,0.0056517879728969,0
4.878,-0.0008263957490819,0
4.878,-0.010188984911607,0
4.881,-0.0227338018277223,0
4.883,-0.0355363065618249,0
4.884,-0.0494848395489022,0
4.887,-0.0509630581834839,0
4.888,-0.0382687397803277,0
4.891,-0.0184240529441005,0
4.892,0.0126007600071476,0
4.894,0.0480291124391261,0
4.896,0.0875687147207653,0
4.899,0.1384542218725454,0
4.901,0.1995465464773239,0
4.903,0.2709122171359625,0
4.904,0.3539260013360595,0
4.907,0.4513252473537901,0
4.908,0.5575598382511572,0
4.911,0.6590197320913538,0
4.912,0.7519703224385493,0
4.914,0.829599771789552,0
4.916,0.8891683858460759,0
4.919,0.952282455968455,0
4.92,1.0225530760482515,0
4.921,1.0911767345003414,0
4.924,1.1652464242528549,0
4.926,1.2161132350906905,0
4.927,1.2425683128459049,0
4.929,1.262808028366287,0
4.931,1.2702994256640754,0
4.934,1.264349680500098,0
4.936,1.2462142780011534,0
4.937,1.2076206691213789,0
4.94,1.155454620363239,0
4.942,1.1009254265310895,0
4.944,1.0468494114287954,0
4.945,1.0015287782408802,0
4.947,0.9618241754542745,0
4.95,0.9110399192797292,0
4.951,0.8333468260160837,0
4.953,0.7129561983449973,0
4.956,0.534383496117479,0
4.958,0.2926881115017556,0
4.96,-0.0093736422126088,0
4.961,-0.3634876909676609,0
4.963,-0.7442149416020823,0
4.964,-1.1127759242758413,0
4.967,-1.4353682005565536,0
4.968,-1.6845969509361014,0
4.97,-1.8378681497058065,0
4.973,-1.8931776290496176,0
4.975,-1.8576148744795604,0
4.976,-1.746176162586074,0
4.979,-1.5878414556119411,0
4.98,-1.415507821563358,0
4.983,-1.2536257359852163,0
4.984,-1.1214026760896896,0
4.986,-1.0262348577773246,0
4.988,-0.9641884401971528,0
4.991,-0.926713395702716,0
4.993,-0.9025168217984412,0
4.995,-0.8847958186418611,0
4.996,-0.8643576262435199,0
4.999,-0.8384764626893445,0
5.0,-0.8042361022093218,0
5.003,-0.7568881024575648,0
5.003,-0.7017032429514647,0
5.006,-0.6355717854431618,0
5.007,-0.5630179481622255,0
5.009,-0.4839950951469934,0
5.012,-0.4069981942651535,0
5.014,-0.3340021072931829,0
5.016,-0.2595687583192001,0
5.017,-0.1931916128501389,0
5.019,-0.160736906519625,0
5.022,-0.1837181392529484,0
5.023,-0.2760545078926048,0
5.025,-0.4375257279784487,0
5.028,-0.6322997944456964,0
5.03,-0.7840729216787554,0
5.032,-0.7949395978546594,0
5.033,-0.5799545604745643,0
5.036,-0.1078804767501959,0
5.038,0.5723769447819255,0
5.039,1.333704944156728,0
5.041,2.002235766211321,0
5.043,2.4075467727962487,0
5.044,2.4237449809323444,0
5.047,1.9963527257498184,0
5.049,1.1506054077163,0
5.051,-0.019169698915733,0
5.052,-1.360553270439429,0
5.055,-2.680334086202466,0
5.056,-3.7715004717364975,0
5.059,-4.448027451611079,0
5.06,-4.582297923851225,1
5.062,-4.1390159345749495,0
5.064,-3.189464710101414,0
5.067,-1.8952619770689711,0
5.069,-0.4737576920241703,0
5.071,0.8499725061165431,0
5.072,1.889714912043577,0
5.075,2.519137285282301,0
5.076,2.702820087545107,0
5.078,2.491119037464617,0
5.08,1.9919475198394068,0
5.083,1.3596028775832725,0
5.085,0.7505395287872505,0
5.087,0.2900786283346379,0
5.088,0.056020307204185,0
5.089,0.0805468170259085,0
5.092,0.3105500857254991,0
5.094,0.6381311888751013,0
5.095,0.96108714147354,0
5.097,1.1785371516027134,0
5.099,1.2486189371130447,0
5.102,1.194324576401671,0
5.104,1.0629774040058926,0
5.105,0.8974915427923545,0
5.108,0.7564310595130892,0
5.11,0.6822678928918482,0
5.111,0.6689673372226751,0
5.113,0.7084906866597009,0
5.115,0.7643800530650365,0
5.118,0.7888883229463712,0
5.119,0.7669046414979575,0
5.121,0.7109760012086533,0
5.124,0.6340260131316203,0
5.126,0.5521270339632626,0
5.128,0.4871049727212987,0
5.128,0.4391887634890996,0
5.131,0.411127044080936,0
5.132,0.4073944605014493,0
5.134,0.4168178501011915,0
5.136,0.4247936182157688,0
5.139,0.4248288013683354,0
5.141,0.4089467990986638,0
5.143,0.374174606516172,0
5.144,0.3255211755190985,0
5.147,0.2673198090049343,0
5.148,0.2041117755167134,0
5.151,0.145246987992038,0
5.152,0.0958255043969502,0
5.154,0.0631790723283883,0
5.156,0.0492605854701134,0
5.159,0.0509041337093506,0
5.161,0.0614828483967088,0
5.163,0.0725118030317613,0
5.164,0.0755747424115315,0
5.167,0.0670920208895859,0
5.168,0.0414274626261096,0
5.169,0.0036029716910362,0
5.171,-0.0328323172057798,0
5.174,-0.0653665523608653,0
5.176,-0.0881966960190211,0
5.177,-0.1019864106049523,0
5.18,-0.0980119382696171,0
5.182,-0.0817297929442797,0
5.184,-0.0765251055684143,0
5.185,-0.0854984327739435,0
5.187,-0.0914779925866475,0
5.19,-0.0938373080254042,0
5.191,-0.1034028612583205,0
5.193,-0.1116997620755015,0
5.196,-0.1060698404467388,0
5.198,-0.0885034683050171,0
5.2,-0.0710019025734192,0
5.201,-0.0603398170743591,0
5.203,-0.0610307606956069,0
5.206,-0.0808638750707003,0
5.207,-0.1002412204158426,0
5.209,-0.1140399962285268,0
5.211,-0.1267265384679409,0
5.212,-0.1262973113703332,0
5.215,-0.1354516147571183,0
5.217,-0.1562488589659781,0
5.219,-0.1655117055011347,0
5.22,-0.1749122273242382,0
5.223,-0.1849097999079401,0
5.224,-0.1957967082919277,0
5.226,-0.2075550587435073,0
5.228,-0.2150257064522278,0
5.23,-0.2402380208923667,0
5.233,-0.2776973208220095,0
5.235,-0.3060808183672834,0
5.236,-0.326007032977856,0
5.239,-0.3472832740047687,0
5.24,-0.3717310039329519,0
5.243,-0.4062549654366394,0
5.244,-0.4553864253290254,0
5.246,-0.4975492907960729,0
5.248,-0.5301790575973254,0
5.251,-0.5747426419395154,0
5.253,-0.6202647621819258,0
5.254,-0.6698785035266164,0
5.256,-0.7235553507924373,0
5.257,-0.7782218579489872,0
5.259,-0.8393518104926166,0
5.262,-0.8895368601930786,0
5.263,-0.9292428833455406,0
5.265,-0.9665719579649812,0
5.267,-0.9929185281507767,0
5.27,-1.0361862876847527,0
5.272,-1.0897493061392391,0
5.273,-1.1219214975235874,0
5.276,-1.133100078679834,0
5.278,-1.0962338946935666,0
5.279,-1.005611433605268,0
5.281,-0.8779165744387962,0
5.283,-0.7120074948916395,0
5.286,-0.5248654657708982,0
5.288,-0.3263513798825288,0
5.289,-0.1152710401783316,0
5.292,0.0981597608654882,0
5.294,0.302992399463291,0
5.295,0.4921551655838719,0
5.296,0.6601663306294582,0
5.299,0.7988848285297527,0
5.3,0.8968396526766794,0
5.302,0.9511647322785416,0
5.304,0.9660084724720996,0
5.307,0.9457253451568204,0
5.309,0.898334505456366,0
5.311,0.8351319920022379,0
5.312,0.7668214547681012,0
5.315,0.703398706860155,0
5.316,0.6502086513117932,0
5.319,0.6100341868759669,0
5.32,0.5823748706245949,0
5.322,0.5636537989885054,0
5.325,0.5489717628711489,0
5.327,0.5357719748900193,0
5.328,0.5197604378923517,0
5.331,0.4974970246761716,0
5.332,0.4732292569613611,0
5.335,0.4441092308322792,0
5.336,0.4169258236032188,0
5.337,0.391787754685536,0
5.339,0.3689567245191698,0
5.342,0.3502965511948915,0
5.344,0.3362298814662282,0
5.345,0.3279416856018918,0
5.348,0.315607965731014,0
5.35,0.2990977385117405,0
5.351,0.2847614007899732,0
5.353,0.2704744686020152,0
5.355,0.2533705479988298,0
5.358,0.2337196897435112,0
5.359,0.2113065809615462,0
5.361,0.1853606531961506,0
5.364,0.1584673895878731,0
5.366,0.1304054135633108,0
5.368,0.0991079438849033,0
5.369,0.0649263758549352,0
5.371,0.0402425936483236,0
5.374,0.0259410932429784,0
5.375,0.016303654959951,0
5.377,0.0147383491073703,0
5.378,0.0132855399710576,0
5.381,0.0115050452790575,0
5.383,0.016365307142074,0
5.384,0.0262547669178358,0
5.387,0.0280202049931463,0
5.388,0.0213246561352361,0
5.391,0.0113746882909354,0
5.392,-0.0052526679120191,0
5.394,-0.0190524660523614,0
5.396,-0.0295524124657932,0
5.399,-0.0444297415054486,0
5.401,-0.0616943992572746,0
5.403,-0.0741671501940026,0
5.404,-0.0821075777819954,0
5.407,-0.087591979845735,0
5.408,-0.0888751132909284,0
5.411,-0.0921485572986862,0
5.412,-0.0976490818760152,0
5.414,-0.1008329392838752,0
5.416,-0.1030253869192168,0
5.419,-0.1063613415167375,0
5.42,-0.1105516916411524,0
5.422,-0.1155158404853595,0
5.424,-0.121740911074992,0
5.425,-0.1268166447312621,0
5.427,-0.1307368467377417,0
5.43,-0.135118123205876,0
5.431,-0.1394691034269694,0
5.433,-0.143567611020114,0
5.436,-0.1475640857937886,0
5.438,-0.1512279607135255,0
5.44,-0.1545363280709677,0
5.441,-0.1580798012218974,0
5.444,-0.1618482997627875,0
5.446,-0.1655353914338632,0
5.447,-0.1692685378648792,0
5.449,-0.1715025151787136,0
5.451,-0.1720644766612474,0
5.454,-0.17177707863455,0
5.456,-0.1701984822960373,0
5.457,-0.1681344329011717,0
5.46,-0.1656388695868504,0
5.462,-0.1619146331917638,0
5.463,-0.1571163108292859,0
5.464,-0.1523770526613032,0
5.467,-0.1476803520228905,0
5.468,-0.1425709795921404,0
5.47,-0.1373178900758991,0
5.473,-0.1310340295436379,0
5.475,-0.1236529276420047,0
5.476,-0.1158288404072993,0
5.479,-0.1073545456172389,0
5.48,-0.1003961187158948,0
5.483,-0.0952389466145977,0
5.484,-0.090713778863758,0
5.486,-0.0874615902464906,0
5.488,-0.0843854533135531,0
5.491,-0.0814229065333603,0
5.493,-0.0797066173097564,0
5.495,-0.0790390874014075,0
5.496,-0.077613389564512,0
5.499,-0.0754460009799739,0
5.5,-0.0733036644136638,0
5.503,-0.0707583458623706,0
5.503,-0.0692030513791358,0
5.505,-0.0687530530603293,0
5.507,-0.0683799714808583,0
5.51,-0.0684150740592145,0
5.512,-0.0674871041202323,0
5.513,-0.0653604488857132,0
5.516,-0.0629308793111981,0
5.518,-0.0597864986810817,0
5.519,-0.0567870985626023,0
5.521,-0.0540268967432368,0
5.523,-0.0507062326545902,0
5.526,-0.0470189582332252,0
5.528,-0.0429656568704033,0
5.529,-0.0384367897323764,0
5.532,-0.033181745009873,0
5.534,-0.0271213342344665,0
5.536,-0.0287412447511903,0
5.537,-0.0347331401217995,0
5.539,-0.0322528918314616,0
5.542,-0.0204701717834066,0
5.543,-0.0156909730994263,0
5.544,-0.020219504219701,0
5.547,-0.0198675998970396,0
5.549,-0.0190284922557623,0
5.551,-0.0190822222339331,0
5.552,-0.0187993176316486,0
5.555,-0.0211216841580806,0
5.556,-0.0211323772313002,0
5.559,-0.0241508119649736,0
5.56,-0.0286895693802474,0
5.562,-0.0328046064002954,0
5.564,-0.0406797078999544,0
5.567,-0.0389330312444261,0
5.569,-0.0322475216927133,0
5.571,-0.0362063576346212,0
5.572,-0.0515200738986319,0
5.575,-0.0562897995882816,0
5.576,-0.0484463070359793,0
5.578,-0.0449514315130995,0
5.58,-0.0402558266447976,0
5.583,-0.0337932056243294,0
5.585,-0.0270069081081658,0
5.587,-0.0161618545539878,0
5.588,-0.0054214272878005,0
5.59,0.006840929785031,0
5.592,0.0194003017059952,0
5.593,0.0309339778114509,0
5.595,0.0455210708712477,0
5.598,0.0583347017394142,0
5.599,0.0707768071305625,0
5.601,0.0851469329827089,0
5.604,0.0954312319241773,0
5.606,0.1141836797492243,0
5.608,0.135084896596742,0
5.609,0.1418941653978766,0
5.611,0.1325833626590555,0
5.614,0.1165325283807039,0
5.615,0.0976604941620708,0
5.617,0.0856199375809429,0
5.619,0.0924076063899994,0
5.622,0.1005642882941652,0
5.624,0.118025136809964,0
5.625,0.1598523471086826,0
5.628,0.2170580815379334,0
5.628,0.2992386122165781,0
5.631,0.3998053065552777,0
5.632,0.4977666781857724,0
5.634,0.5945038441191872,0
5.636,0.6763482543786884,0
5.639,0.7459230986410408,0
5.641,0.8194870657372857,0
5.643,0.8964360633521852,0
5.644,0.9904377091869352,0
5.647,1.096073194574405,0
5.648,1.1899941421257156,0
5.651,1.2658060766093888,0
5.652,1.300135646786541,0
5.654,1.2894210770286532,0
5.656,1.2499293246414018,0
5.659,1.1873008745058,0
5.661,1.1238639033367304,0
5.663,1.0695365074763372,0
5.664,1.0281166056362625,0
5.667,1.002088170923778,0
5.668,0.9828819595725696,0
5.67,0.9528625790496912,0
5.671,0.8901581742235518,0
5.673,0.7673507775893101,0
5.676,0.5623265126960418,0
5.678,0.2668039543830431,0
5.68,-0.1090660378900287,0
5.681,-0.5351102638584707,0
5.684,-0.96693166792006,0
5.686,-1.3563173624086995,0
5.687,-1.6623729798617597,0
5.689,-1.8602371060797436,0
5.691,-1.944606552355954,0
5.694,-1.927680805182814,0
5.696,-1.833249098094402,0
5.697,-1.689580941238791,0
5.7,-1.523531325265986,0
5.702,-1.3571282019945097,0
5.703,-1.2065781181125017,0
5.705,-1.0827091478433588,0
5.707,-0.9916233336431808,0
5.71,-0.9348740138082968,0
5.711,-0.9090034173599612,0
5.712,-0.9051590968508548,0
5.715,-0.9101127531165604,0
5.717,-0.908270761871366,0
5.719,-0.8857100432797104,0
5.72,-0.8346312169230141,0
5.723,-0.754332995396915,0
5.724,-0.6528873588813048,0
5.726,-0.5432987449899725,0
5.728,-0.4373595196815336,0
5.73,-0.3501789861745393,0
5.733,-0.289522474809172,0
5.735,-0.2503098462299933,0
5.736,-0.2461260067966495,0
5.739,-0.3053337831847373,0
5.74,-0.4295966653386279,0
5.743,-0.5892184441372009,0
5.744,-0.7293435248226313,0
5.746,-0.7666371382297614,0
5.748,-0.6126927197315962,0
5.751,-0.2162862667491716,0
5.753,0.4045485277257273,0
5.753,1.1537201729630784,0
5.756,1.8770120785540243,0
5.758,2.4029073053531267,0
5.759,2.5866845502308027,0
5.761,2.3431630117816784,0
5.763,1.6618034817909595,0
5.766,0.6086319963669293,0
5.767,-0.6806181978851708,0
5.769,-2.016584841580358,0
5.772,-3.183025800578777,0
5.774,-3.976016720436777,0
5.776,-4.24894232563375,1
5.777,-3.949308644182397,0
5.779,-3.1338036415199118,0
5.782,-1.9555512148731231,0
5.783,-0.6259891920631331,0
5.785,0.6361185979532755,0
5.788,1.6420695468943112,0
5.79,2.2760642903272967,0
5.792,2.496577242319595,0
5.793,2.336298633237184,0
5.795,1.8879453913640232,0
5.796,1.283003512879396,0
5.799,0.6654983115189769,0
5.8,0.1678802631333635,0
5.802,-0.1157033293429365,0
5.804,-0.1483201882988231,0
5.807,0.0444444028213682,0
5.809,0.3836853060264116,0
5.811,0.7596111410120111,0
5.812,1.064820811250045,0
5.815,1.2259258519302902,0
5.816,1.2203059144677406,0
5.819,1.0781855141124974,0
5.82,0.8659585073067726,0
5.822,0.658461863354566,0
5.825,0.5200322219841518,0
5.827,0.4764176785977765,0
5.828,0.5141076754622874,0
5.831,0.599145687592728,0
5.832,0.6846559659066583,0
5.835,0.7361732937738509,0
5.836,0.7421575281206603,0
5.838,0.7077623401671381,0
5.839,0.6391866813026188,0
5.841,0.5591658625533075,0
5.844,0.4918823072253592,0
5.846,0.4413581361604246,0
5.848,0.4128503743684662,0
5.849,0.3978541541173497,0
5.851,0.3787854550626638,0
5.854,0.3506445725230674,0
5.855,0.3236787680574602,0
5.857,0.2993171939508397,0
5.859,0.2634835695909399,0
5.862,0.218190877767451,0
5.864,0.1884808917004551,0
5.865,0.1741932990786574,0
5.868,0.1602363183581586,0
5.87,0.1520878092960739,0
5.871,0.1403799806597197,0
5.873,0.1230286235066159,0
5.875,0.1085088948741085,0
5.878,0.0941265732575136,0
5.878,0.0841303957633578,0
5.881,0.0797044909809632,0
5.883,0.0765916826818253,0
5.884,0.0760979576081984,0
5.887,0.0712913848522587,0
5.888,0.0610626275554206,0
5.891,0.0497642358651555,0
5.892,0.0353255696797145,0
5.894,0.021249739945736,0
5.896,0.0078872582284859,0
5.899,-0.0083562338280914,0
5.901,-0.026762602815238,0
5.903,-0.0401021289848724,0
5.904,-0.0482140115892391,0
5.907,-0.05409782056534,0
5.908,-0.0559079233661054,0
5.911,-0.0588184712882746,0
5.912,-0.0631441110486482,0
5.914,-0.0647532603759279,0
5.916,-0.0647677711363181,0
5.919,-0.0693564643987552,0
5.92,-0.0786487274036596,0
5.921,-0.0905317884678671,0
5.924,-0.1066453826708951,0
5.926,-0.1238840480933537,0
5.927,-0.1422761518488531,0
5.929,-0.1653705692231724,0
5.931,-0.1927523846741964,0
5.934,-0.1988351914708675,0
5.936,-0.1869757517342641,0
5.937,-0.1804106261004976,0
5.94,-0.1762439630785959,0
5.942,-0.1813825193019154,0
5.944,-0.2015633553756974,0
5.945,-0.2344073043736213,0
5.947,-0.2790023218832151,0
5.95,-0.3135052146376191,0
5.951,-0.3347434501632122,0
5.953,-0.3592130693818467,0
5.956,-0.3852236191998412,0
5.958,-0.4105129236311213,0
5.96,-0.4425822329122112,0
5.961,-0.4868057842212326,0
5.963,-0.5473021321678624,0
5.964,-0.5974528721788488,0
5.967,-0.6348095737969219,0
5.968,-0.6806472513304327,0
5.97,-0.7284760773486145,0
5.973,-0.7786145146763408,0
5.975,-0.8332540030587521,0
5.976,-0.8892801310901757,0
5.979,-0.9474130492382978,0
5.98,-1.0013316607418097,0
5.983,-1.050022532060001,0
5.984,-1.0992227975098254,0
5.986,-1.1431107963524916,0
5.988,-1.17537171002717,0
5.991,-1.19359925867347,0
5.993,-1.1865237242655458,0
5.995,-1.1495721268951464,0
5.996,-1.085480309434856,0
5.999,-0.9928788289006534,0
6.0,-0.8571880350075862,0
6.003,-0.6809118105587644,0
6.003,-0.4851269049109623,0
6.006,-0.2733788011605865,0
6.007,-0.0435516598659405,0
6.009,0.1920350972320248,0
6.012,0.4105226389468643,0
6.014,0.6029627979077968,0
6.016,0.7749406266924898,0
6.017,0.9149435894836638,0
6.019,1.0052280980424952,0
6.022,1.0467491068755057,0
6.023,1.0519544040223907,0
6.025,1.025586362217095,0
6.028,0.974640524080816,0
6.03,0.9101965054663702,0
6.032,0.8408055214336105,0
6.033,0.7758488778861926,0
6.036,0.7192236996283407,0
6.038,0.6732672795894765,0
6.039,0.6364374911626304,0
6.041,0.6063270828573677,0
6.043,0.5745902327287271,0
6.044,0.5386695441254586,0
6.047,0.5103615183263176,0
6.049,0.4869681172857433,0
6.051,0.461727322516456,0
6.052,0.4355983848351338,0
6.055,0.4101151809694586,0
6.056,0.3839602392487541,0
6.059,0.3627533794778056,0
6.06,0.3467963997107981,0
6.062,0.3323550953891261,0
6.064,0.3207343034381735,0
6.067,0.3104542722022095,0
6.069,0.3010724393476928,0
6.071,0.2943002402826444,0
6.072,0.2897060315953509,0
6.075,0.2788485715997232,0
6.076,0.2610729129389114,0
6.078,0.2399899632867859,0
6.08,0.2132082493138236,0
6.083,0.1858103835054039,0
6.085,0.1579391727317378,0
6.087,0.1248769827167936,0
6.088,0.0875365292744689,0
6.089,0.0622590722148405,0
6.092,0.0499293556077207,0
6.094,0.0433143903255164,0
6.095,0.046803828564484,0
6.097,0.0495210169060173,0
6.099,0.0508601105741552,0
6.102,0.0600594778972168,0
6.104,0.0748729669327525,0
6.105,0.0795852308373348,0
6.108,0.0738632795765702,0
6.11,0.0636754463763858,0
6.111,0.0449309674118875,0
6.113,0.0291774690892522,0
6.115,0.016930673332254,0
6.118,-0.0010950871337371,0
6.119,-0.0225078141598979,0
6.121,-0.0390514538734779,0
6.124,-0.0510950555983807,0
6.126,-0.0609776645060798,0
6.128,-0.0667227239184522,0
6.128,-0.0756176368730075,0
6.131,-0.0879588403222519,0
6.132,-0.0984840127511607,0
6.134,-0.108775473863135,0
6.136,-0.1173127860323453,0
6.139,-0.12337821343758,0
6.141,-0.1288030238142839,0
6.143,-0.1330123099970856,0
6.144,-0.1355366299885177,0
6.147,-0.1364808607495736,0
6.148,-0.1355319439174585,0
6.151,-0.1325592359273848,0
6.152,-0.1302060380356546,0
6.154,-0.1285868566078163,0
6.156,-0.1262929003700461,0
6.159,-0.1239805258268294,0
6.161,-0.1200038395127468,0
6.163,-0.1141775385907869,0
6.164,-0.1078428522144975,0
6.167,-0.1006002826100427,0
6.168,-0.0958968079766601,0
6.169,-0.0942273907571946,0
6.171,-0.093679111443301,0
6.174,-0.0952866757993417,0
6.176,-0.0973505821297223,0
6.177,-0.0997717690362614,0
6.18,-0.1043482043009789,0
6.182,-0.1107789436447247,0
6.184,-0.1159625796955498,0
6.185,-0.1199084379824489,0
6.187,-0.1239569310926974,0
6.19,-0.1273668299097989,0
6.191,-0.1324889476653261,0
6.193,-0.1395192399442698,0
6.196,-0.1467037694482704,0
6.198,-0.1545996207151069,0
6.2,-0.1597565006103716,0
6.201,-0.1616536106324718,0
6.203,-0.1623291357226291,0
6.206,-0.1607528471039938,0
6.207,-0.1585294060572162,0
6.209,-0.1557846432745951,0
6.211,-0.1507827837034023,0
6.212,-0.1438200215001454,0
6.215,-0.1380889006195305,0
6.217,-0.1336054582982721,0
6.219,-0.1289950029316146,0
6.22,-0.1250350672301506,0
6.223,-0.119364856863893,0
6.224,-0.111799637370018,0
6.226,-0.104139328794208,0
6.228,-0.095836847367977,0
6.23,-0.0898819879760461,0
6.233,-0.0867672782790175,0
6.235,-0.0846897260376621,0
6.236,-0.0845588268273658,0
6.239,-0.0850656463651336,0
6.24,-0.0861106619173284,0
6.243,-0.0891815116867589,0
6.244,-0.0940489320287405,0
6.246,-0.097861913347613,0
6.248,-0.1006092950843522,0
6.251,-0.1035525221319856,0
6.253,-0.1060041460666732,0
6.254,-0.1100705904283719,0
6.256,-0.1159302169179785,0
6.257,-0.1219897184354378,0
6.259,-0.1287465441204611,0
6.262,-0.1327509025357421,0
6.263,-0.1334923200552461,0
6.265,-0.1329600197914453,0
6.267,-0.1301220194807668,0
6.27,-0.1266125172307201,0
6.272,-0.1225461135564687,0
6.273,-0.1161662835982382,0
6.276,-0.1077688921372748,0
6.278,-0.1004825781488457,0
6.279,-0.0943102713861354,0
6.281,-0.0879017621861337,0
6.283,-0.0820116720481028,0
6.286,-0.0742992829684455,0
6.288,-0.0645751299542984,0
6.289,-0.0546046154478357,0
6.292,-0.0438389869734766,0
6.294,-0.0341514856578092,0
6.295,-0.0259088509859326,0
6.296,-0.017822336747944,0
6.299,-0.0104690965102182,0
6.3,-0.0031599969458427,0
6.302,0.0041916524349994,0
6.304,0.0107181286149122,0
6.307,0.0165464730478309,0
6.309,0.0232683746367114,0
6.311,0.0308805113827889,0
6.312,0.0385904741022641,0
6.315,0.0467674917003884,0
6.316,0.0547293874783921,0
6.319,0.0623939172414865,0
6.32,0.0684050913629424,0
6.322,0.0765048412072398,0
6.325,0.0820158723912662,0
6.327,0.0862064333188671,0
6.328,0.0893265504192564,0
6.331,0.0909843300755022,0
6.332,0.0942970846261091,0
6.335,0.09949070463866,0
6.336,0.1052607884931376,0
6.337,0.1124590179420718,0
6.339,0.1164422204799674,0
6.342,0.1227490286480722,0
6.344,0.1465838715703711,0
6.345,0.1914063028704107,0
6.348,0.2586094631450275,0
6.35,0.3474307865690091,0
6.351,0.4520089604990577,0
6.353,0.5647287961337282,0
6.355,0.6734372202329506,0
6.358,0.7708595493266407,0
6.359,0.8642556573251758,0
6.361,0.9519478701757368,0
6.364,1.0330024321498992,0
6.366,1.1080698653057175,0
6.368,1.1676921486170186,0
6.369,1.2109274566123198,0
6.371,1.2428962504582253,0
6.374,1.2609631550805205,0
6.375,1.2608309516531988,0
6.377,1.2419484506092475,0
6.378,1.2046588562710276,0
6.381,1.1545984773683644,0
6.383,1.1049453756727936,0
6.384,1.0603415562377123,0
6.387,1.023690291823453,0
6.388,0.991449385841145,0
6.391,0.953444895020576,0
6.392,0.8934888680232974,0
6.394,0.7919079671290999,0
6.396,0.6344255361545009,0
6.399,0.4102988070628761,0
6.401,0.1208774449154112,0
6.403,-0.2202250994915711,0
6.404,-0.5900709697163203,0
6.407,-0.9593894066181006,0
6.408,-1.2954749480706398,0
6.411,-1.576122124755652,0
6.412,-1.7810890369542582,0
6.414,-1.884821810805196,0
6.416,-1.8913683218662785,0
6.419,-1.8318553229164125,0
6.42,-1.725688013737608,0
6.422,-1.5893485780974108,0
6.424,-1.4445255623407396,0
6.425,-1.3124621338724058,0
6.427,-1.200381651854862,0
6.43,-1.1108040268270862,0
6.431,-1.0418430539393158,0
6.433,-0.9883044322716772,0
6.436,-0.9445786925615982,0
6.438,-0.9050342771098042,0
6.44,-0.8643472660504711,0
6.441,-0.8213558751803829,0
6.444,-0.7710650992988637,0
6.446,-0.7066331572315389,0
6.447,-0.6291774100687064,0
6.449,-0.5513405333646253,0
6.451,-0.472910623195182,0
6.454,-0.3956037786511808,0
6.456,-0.3230764303823485,0
6.457,-0.2595735545849085,0
6.46,-0.2146912886436567,0
6.462,-0.205186048061454,0
6.463,-0.2514141281487126,0
6.464,-0.3654531167809757,0
6.467,-0.535260501104298,0
6.468,-0.7126284498292245,0
6.47,-0.8145995614732322,0
6.473,-0.7440346505625139,0
6.475,-0.4295340911939737,0
6.476,0.1432155067525721,0
6.479,0.9069737133261364,0
6.48,1.7244119845874653,0
6.483,2.4219079931114447,0
6.484,2.835130539958357,0
6.486,2.847838567948581,0
6.488,2.413397717458252,0
6.491,1.5594914217003786,0
6.493,0.3824730442151652,0
6.495,-0.9636562592952114,0
6.496,-2.2843836595089493,0
6.499,-3.37186622589161,0
6.5,-4.042701844418438,0
6.503,-4.178828154159301,1
6.503,-3.758055788369846,0
6.505,-2.861914455260684,0
6.507,-1.6564094926386044,0
6.51,-0.3520873088685724,0
6.512,0.8426648574998162,0
6.513,1.7619955200150088,0
6.516,2.3068820919067914,0
6.518,2.4523488372486697,0
6.519,2.2422574421183774,0
6.521,1.7748877511953058,0
6.523,1.1829152902708433,0
6.526,0.6086703051736727,0
6.528,0.1755710431377884,0
6.529,-0.0380796653682405,0
6.532,-0.0161742981686434,0
6.534,0.1943224897759934,0
6.536,0.5015133223284203,0
6.537,0.799568307801787,0
6.539,1.0022379252603073,0
6.542,1.0669703666475543,0
6.543,1.0042575599183832,0
6.544,0.8609684369527899,0
6.547,0.6985550695237711,0
6.549,0.5724789386067822,0
6.551,0.5107312877044291,0
6.552,0.5132470423509735,0
6.555,0.5588126152453019,0
6.556,0.6150484244600418,0
6.559,0.6457341480014455,0
6.56,0.6359098249986018,0
6.562,0.5902501885471827,0
6.564,0.5181931893080047,0
6.567,0.4583220324033853,0
6.569,0.4259734997192531,0
6.571,0.4152921251175283,0
6.572,0.4328331819709236,0
6.575,0.433562110972664,0
6.576,0.4073191189044405,0
6.578,0.3737506393929278,0
6.58,0.3167431902838602,0
6.583,0.277540683959273,0
6.585,0.2562464661049656,0
6.587,0.2206203600546051,0
6.588,0.1782401841613447,0
6.59,0.147214292755297,0
6.592,0.1246822790431372,0
6.593,0.1063127438082276,0
6.595,0.0954607025936768,0
6.598,0.0847866997280378,0
6.599,0.0741011938735629,0
6.601,0.0693985999967179,0
6.604,0.0692817161774266,0
6.606,0.0636997642510942,0
6.608,0.0524954581676634,0
6.609,0.0370072673945569,0
6.611,0.0199481219619813,0
6.614,0.0021444669726275,0
6.615,-0.0144028362505804,0
6.617,-0.0326180598421887,0
6.619,-0.057080367905326,0
6.622,-0.0620508492305162,0
6.624,-0.0530931416411305,0
6.625,-0.0520973801983583,0
6.628,-0.0574746925499237,0
6.628,-0.0634901238756259,0
6.631,-0.0685970666658281,0
6.632,-0.0630154234691483,0
6.634,-0.0431733397064058,0
6.636,-0.0387397457539187,0
6.639,-0.0522284385793262,0
6.641,-0.059435810869005,0
6.643,-0.0738811191864092,0
6.644,-0.0850551915890392,0
6.647,-0.0929076057545442,0
6.648,-0.1058408398401356,0
6.651,-0.1163748656822818,0
6.652,-0.1398933134911211,0
6.654,-0.1707640843356746,0
6.656,-0.1889394253613411,0
6.659,-0.1931182680243445,0
6.661,-0.2018681107717434,0
6.663,-0.216742231223057,0
6.664,-0.2371626914050739,0
6.667,-0.2691085943367695,0
6.668,-0.2956215571792256,0
6.67,-0.3135930172174747,0
6.671,-0.3423036488353959,0
6.673,-0.3726253168281989,0
6.676,-0.4044357656488856,0
6.678,-0.4377861092750916,0
6.68,-0.4711862182963793,0
6.681,-0.5093363437201065,0
6.684,-0.5481577436986326,0
6.686,-0.5894953145290799,0
6.687,-0.6329387055030857,0
6.689,-0.678569048419495,0
6.691,-0.7269859943756873,0
6.694,-0.7782672039121261,0
6.696,-0.8322211354009017,0
6.697,-0.8890444409307288,0
6.7,-0.939063629959182,0
6.702,-0.9813449527715804,0
6.703,-1.0203149084914167,0
6.705,-1.0531899293783404,0
6.707,-1.0939406882788718,0
6.71,-1.1392224719041548,0
6.711,-1.171414792541884,0
6.712,-1.185267204806688,0
6.715,-1.1568794988052973,0
6.717,-1.075696535754496,0
6.719,-0.9498510185480652,0
6.72,-0.7772457068849802,0
6.723,-0.5723093183143215,0
6.724,-0.3483073366292036,0
6.726,-0.1141568105054745,0
6.728,0.1177044930101724,0
6.73,0.3353231928367537,0
6.733,0.5311945952165243,0
6.735,0.6922468127588726,0
6.736,0.8144210011022504,0
6.739,0.9003670775359824,0
6.74,0.9492230669717324,0
6.743,0.9605305385017402,0
6.744,0.9393206957147532,0
6.746,0.8961290945360157,0
6.748,0.8347412879658965,0
6.751,0.7650917256457728,0
6.753,0.6935511407395727,0
6.753,0.620969125178282,0
6.756,0.5540296558336545,0
6.758,0.5035651235560896,0
6.759,0.4697331570506305,0
6.761,0.4491269527345528,0
6.763,0.4403039547380591,0
6.766,0.4401378128540457,0
6.767,0.4465348304576113,0
6.769,0.458129199084926,0
6.772,0.4726421948001676,0
6.774,0.4900021912846874,0
6.776,0.5084224434416925,0
6.777,0.5160274142748454,0
6.779,0.5104507678991227,0
6.782,0.4947701503892168,0
6.783,0.4645366744767977,0
6.785,0.4335893546850908,0
6.788,0.4015704668732233,0
6.79,0.3569292224434696,0
6.792,0.3019531122882569,0
6.793,0.2627275767642938,0
6.795,0.2399830894179405,0
6.796,0.2224467289491664,0
6.799,0.2168031023766377,0
6.8,0.2039584135047529,0
6.802,0.1826286546567429,0
6.804,0.1679134205494405,0
6.807,0.1555818102591251,0
6.809,0.1430283699959383,0
6.811,0.1317518211192502,0
6.812,0.1200262333524921,0
6.815,0.1076026592688439,0
6.816,0.0996871429282117,0
6.819,0.09625797878487,0
6.82,0.0946357482773727,0
6.822,0.0959823449528921,0
6.825,0.0920757819583106,0
6.827,0.0819792179661924,0
6.828,0.0704800880858076,0
6.831,0.0552821027346046,0
6.832,0.0404705733452529,0
6.835,0.0264572653369025,0
6.836,0.0092117190977833,0
6.838,-0.0104048210086095,0
6.839,-0.0261424434149828,0
6.841,-0.037979190983869,0
6.844,-0.0483432872916189,0
6.846,-0.0556779611147345,0
6.848,-0.0646374931045384,0
6.849,-0.0754937557052119,0
6.851,-0.0846332228208148,0
6.854,-0.0930740165652428,0
6.855,-0.1009800741515167,0
6.857,-0.1079469998123633,0
6.859,-0.1146024235385952,0
6.862,-0.120873164678187,0
6.864,-0.125756230194942,0
6.865,-0.129264238924015,0
6.868,-0.1317951100283455,0
6.87,-0.1331120568469595,0
6.871,-0.1343227411403971,0
6.873,-0.1355184194177742,0
6.875,-0.1359696262536685,0
6.878,-0.1359533909878591,0
6.878,-0.134902445818727,0
6.881,-0.1327158110067532,0
6.883,-0.1298891136610346,0
6.884,-0.1262692685410352,0
6.887,-0.1231244340359368,0
6.888,-0.1206323290294181,0
6.891,-0.1180763941171633,0
6.892,-0.1158332067835731,0
6.894,-0.1132543506564237,0
6.896,-0.1102948692979847,0
6.899,-0.1076197858953581,0
6.901,-0.1051072012790095,0
6.903,-0.101546747921609,0
6.904,-0.0969289453562545,0
6.907,-0.0917655094981076,0
6.908,-0.0857583045685105,0
6.911,-0.079802471129632,0
6.912,-0.0739633313543856,0
6.914,-0.0675526539176725,0
6.916,-0.060774436941614,0
6.919,-0.0555667391619362,0
6.92,-0.0520551886017453,0
6.921,-0.0494820966006314,0
6.924,-0.0483945886506114,0
6.926,-0.0475243843202796,0
6.927,-0.0468460501715272,0
6.929,-0.0474932745871492,0
6.931,-0.0492373608279176,0
6.934,-0.0509495410140939,0
6.936,-0.0527002926662752,0
6.937,-0.0549108777363982,0
6.94,-0.0573374477764155,0
6.942,-0.0609940327098756,0
6.944,-0.0659674384650674,0
6.945,-0.0715780008032766,0
6.947,-0.0780787262434753,0
6.95,-0.082681586448363,0
6.951,-0.0850570907208902,0
6.953,-0.0867176241890487,0
6.956,-0.0868598794509638,0
6.958,-0.08696100612843,0
6.96,-0.0871243202274821,0
6.961,-0.085894291994723,0
6.963,-0.0835577621471971,0
6.964,-0.0824082007584417,0
6.967,-0.0824414065896948,0
6.968,-0.0827273922632543,0
6.97,-0.0838250897249406,0
6.973,-0.0839917722548649,0
6.975,-0.0831055620483904,0
6.976,-0.0824869141569503,0
6.979,-0.0817386998194207,0
6.98,-0.0808790409253984,0
6.983,-0.0800483993000781,0
6.984,-0.0789481439429667,0
6.986,-0.0776144658273399,0
6.988,-0.0763424371033037,0
6.991,-0.0751056958431614,0
6.993,-0.0737919059873425,0
6.995,-0.0724589715401261,0
6.996,-0.0706027981598471,0
6.999,-0.0681717738655429,0
7.0,-0.0654468333756941,0
7.003,-0.0622886041460876,0
7.003,-0.0589476632830976,0
7.006,-0.0554468084786365,0
7.007,-0.0515398153178061,0
7.009,-0.0472782765551086,0
7.012,-0.0444019279725085,0
7.014,-0.0430511929845463,0
7.016,-0.0424414288713706,0
7.017,-0.0430627380596377,0
7.019,-0.0438518907216924,0
7.022,-0.0447651510778488,0
7.023,-0.0467743326776722,0
7.025,-0.0496785802410243,0
7.028,-0.0523268103511858,0
7.03,-0.054756796547407,0
7.032,-0.0574058265923767,0
7.033,-0.060008065387256,0
7.036,-0.063521245220305,0
7.038,-0.0680168321353163,0
7.039,-0.07281254663052,0
7.041,-0.0781355610604563,0
7.043,-0.0817464381522593,0
7.044,-0.0833559805931671,0
7.047,-0.0841874731022543,0
7.049,-0.0835836519691223,0
7.051,-0.082684130707133,0
7.052,-0.0815614685311403,0
7.055,-0.0790513494060354,0
7.056,-0.0753650071730607,0
7.059,-0.0723753768087913,0
7.06,-0.0700721888738623,0
7.062,-0.0676709522919057,0
7.064,-0.0656205772347697,0
7.067,-0.0624896612923766,0
7.069,-0.0581661895186019,0
7.071,-0.0537189576446459,0
7.072,-0.0488128971102074,0
7.075,-0.0441247546164456,0
7.076,-0.0398279842002377,0
7.078,-0.0353533792563647,0
7.08,-0.0309158506575629,0
7.083,-0.0263601704345374,0
7.085,-0.0216411139345844,0
7.087,-0.0170287568802318,0
7.088,-0.0124914133847164,0
7.089,-0.0072003484360048,0
7.092,-0.0011259270905113,0
7.094,0.0053511564319131,0
7.095,0.0124427313381081,0
7.097,0.0196009945739755,0
7.099,0.0267848619897377,0
7.102,0.0344439793032992,0
7.104,0.0424571540031889,0
7.105,0.0491669514006029,0
7.108,0.0544579908086584,0
7.11,0.0590222377720486,0
7.111,0.0623942363962745,0
7.113,0.0656333744968858,0
7.115,0.068772183319851,0
7.118,0.0708604129485854,0
7.119,0.0720948030788597,0
7.121,0.0918230049066739,0
7.124,0.1318834356642065,0
7.126,0.1834157478710893,0
7.128,0.2519970642038623,0
7.128,0.3258249112169643,0
7.131,0.4044624135696227,0
7.132,0.5008260350860998,0
7.134,0.608923567953563,0
7.136,0.7160295073861684,0
7.139,0.8210224574136022,0
7.141,0.930633579556754,0
7.143,1.0410680108316173,0
7.144,1.1321276001566003,0
7.147,1.2014070776052117,0
7.148,1.2549690781495264,0
7.151,1.2862209321423212,0
7.152,1.3058319284230384,0
7.154,1.312731609697266,0
7.156,1.2948053696511417,0
7.159,1.2528877008258692,0
7.161,1.2107505043410365,0
7.163,1.1678663554285027,0
7.164,1.1118655865626612,0
7.167,1.0478861636310208,0
7.168,0.9946474198726756,0
7.169,0.9481975199126574,0
7.171,0.8951602899479846,0
7.174,0.8274850166222952,0
7.176,0.733855530720212,0
7.177,0.5993826339348829,0
7.18,0.4127249631808839,0
7.182,0.1690610811341537,0
7.184,-0.1278396923853321,0
7.185,-0.4643036107058066,0
7.187,-0.8175984704629129,0
7.19,-1.1586483118954345,0
7.191,-1.4563573238979306,0
7.193,-1.6839310609568892,0
7.196,-1.822842506268092,0
7.198,-1.8676403689617056,0
7.2,-1.8262897869352803,0
7.201,-1.7185771224057236,0
7.203,-1.571486052772976,0
7.206,-1.4130711396182485,0
7.207,-1.2668318767238054,0
7.209,-1.1474015727971694,0
7.211,-1.059136849291303,0
7.212,-0.9977649135259504,0
7.215,-0.9544450362970984,0
7.217,-0.9191350544215756,0
7.219,-0.8841967341256419,0
7.22,-0.8465156391663693,0
7.223,-0.8062531744244117,0
7.224,-0.7650621048984667,0
7.226,-0.7238710342495319,0
7.228,-0.6836202191132903,0
7.23,-0.6372337840683873,0
7.233,-0.5848563774181685,0
7.235,-0.5279388029915963,0
7.236,-0.4647696947692463,0
7.239,-0.3998822323502588,0
7.24,-0.3331809200601445,0
7.243,-0.2703036896810757,0
7.244,-0.2259736435550707,0
7.246,-0.2151804499733918,0
7.248,-0.2610253626044145,0
7.251,-0.3797421922876151,0
7.253,-0.5520922174932495,0
7.254,-0.7250595651615975,0
7.256,-0.8097614852727869,0
7.257,-0.7064014430928999,0
7.259,-0.3509804816963392,0
7.262,0.2547230256168877,0
7.263,1.0266174684141889,0
7.265,1.8122672256780368,0
7.267,2.4330162979775345,0
7.27,2.729690979438838,0
7.272,2.5999654014411204,0
7.273,2.0175235404980443,0
7.276,1.0329765706730203,0
7.278,-0.2350464387771594,0
7.279,-1.6144791877812368,0
7.281,-2.9010538490094007,0
7.283,-3.888720754047159,0
7.286,-4.408165141301542,1
7.288,-4.365216955066575,0
7.289,-3.766190535573109,0
7.292,-2.719658543567973,0
7.294,-1.41279687291133,0
7.295,-0.0685678344916503,0
7.296,1.1018608583810008,0
7.299,1.9389979137645388,0
7.3,2.360232722145892,0
7.302,2.3665758106175163,0
7.304,2.033930074238655,0
7.307,1.4923985214367437,0
7.309,0.8969210470722725,0
7.311,0.3938137288560379,0
7.312,0.0899217676003221,0
7.315,0.0309859547711847,0
7.316,0.1948935956967143,0
7.319,0.5036240542257618,0
7.32,0.8500045482349773,0
7.322,1.1311112692385354,0
7.325,1.2793868391238492,0
7.327,1.2760868925079218,0
7.328,1.1497952000390557,0
7.331,0.961697725339332,0
7.332,0.7797334132007825,0
7.335,0.6529539277115869,0
7.336,0.6055197352623882,0
7.337,0.6276095035544168,0
7.339,0.6879732869463268,0
7.342,0.7501390950866444,0
7.344,0.785480114998983,0
7.345,0.7798681727905447,0
7.348,0.7367973183181449,0
7.35,0.6703254792444636,0
7.351,0.5977046313433562,0
7.353,0.5344479723612938,0
7.355,0.4850105226936579,0
7.358,0.4504652900555517,0
7.359,0.4292550389316322,0
7.361,0.4136042239543561,0
7.364,0.3948054178594684,0
7.366,0.3671398895510965,0
7.368,0.3254408691874116,0
7.369,0.2672620674941678,0
7.371,0.2146858224872516,0
7.374,0.1725992335562197,0
7.375,0.1374736217505724,0
7.377,0.1178198141995239,0
7.378,0.1040054494505456,0
7.381,0.09912724139746,0
7.383,0.1187060974106006,0
7.384,0.1557337643433463,0
7.387,0.1724801144895668,0
7.388,0.1655642097856235,0
7.391,0.1401575856840813,0
7.392,0.0906234981987065,0
7.394,0.0408956329101423,0
7.396,0.0002957785132815,0
7.399,-0.0382407265389372,0
7.401,-0.0636647918620608,0
7.403,-0.0723247302840396,0
7.404,-0.0685606280831775,0
7.407,-0.0571513641100573,0
7.408,-0.0457788220420656,0
7.411,-0.0436027554226323,0
7.412,-0.0529188612912016,0
7.414,-0.0753928780715682,0
7.416,-0.1060895583070819,0
7.419,-0.1294349210653294,0
7.42,-0.1415844130770512,0
7.422,-0.141687814780796,0
7.424,-0.1306227961382592,0
7.425,-0.1143421127270354,0
7.427,-0.1012433477994907,0
7.43,-0.0964336683048071,0
7.431,-0.1069397035390938,0
7.433,-0.1311041311503409,0
7.436,-0.1649705424415512,0
7.438,-0.2006184140222128,0
7.44,-0.2302850539510873,0
7.441,-0.2510854378784335,0
7.444,-0.2611902093579313,0
7.446,-0.2529756946674352,0
7.447,-0.2313658666439715,0
7.449,-0.2184451015952751,0
7.451,-0.2170704952915459,0
7.454,-0.2239195600913002,0
7.456,-0.2421642204977441,0
7.457,-0.2616008512289963,0
7.46,-0.2821869177651437,0
7.462,-0.3185964585672543,0
7.463,-0.3695970249695337,0
7.464,-0.4057942035285142,0
7.467,-0.4275770435449506,0
7.468,-0.4490772000644123,0
7.47,-0.4636624066034087,0
7.473,-0.4987176402722836,0
7.475,-0.5519582711209203,0
7.476,-0.5948353240305766,0
7.479,-0.6304900594990317,0
7.48,-0.6735518622468935,0
7.483,-0.7241453182505257,0
7.484,-0.7689334905550389,0
7.486,-0.8169882382464196,0
7.488,-0.8636755161458937,0
7.491,-0.909953895577464,0
7.493,-0.9581343328210774,0
7.495,-1.0007856333701923,0
7.496,-1.049749043325051,0
7.499,-1.09597388802555,0
7.5,-1.1160475319626073,0
7.503,-1.1053806013393903,0
7.503,-1.0565233032455477,0
7.505,-0.9657105958324248,0
7.507,-0.8377051390702294,0
7.51,-0.6756980079369912,0
7.512,-0.4916652906996271,0
7.513,-0.2898235343633593,0
7.516,-0.0783946105563516,0
7.518,0.1358614532760709,0
7.519,0.3392761134613853,0
7.521,0.5240848475899881,0
7.523,0.6878263815482722,0
7.526,0.8216708030062975,0
7.528,0.9105814081410412,0
7.529,0.9532620297344384,0
7.532,0.9577100322570852,0
7.534,0.9288314726458724,0
7.536,0.8732860491725573,0
7.537,0.8032578899119821,0
7.539,0.7305199345882072,0
7.542,0.665328291831835,0
7.543,0.6067734176552075,0
7.544,0.5569563664125784,0
7.547,0.5172698854793428,0
7.549,0.482169994099035,0
7.551,0.4607449558774485,0
7.552,0.4512559665002705,0
7.555,0.4425266832729957,0
7.556,0.4347113852349633,0
7.559,0.416150039613218,0
7.56,0.3869255445150628,0
7.562,0.3623596791884929,0
7.564,0.3408105290692022,0
7.567,0.32789716247451,0
7.569,0.3275667002109437,0
7.571,0.3354378533358272,0
7.572,0.354812765817584,0
7.575,0.3546676705300577,0
7.576,0.3326441514805174,0
7.578,0.3071300840931828,0
7.58,0.2701155052916362,0
7.583,0.2350131398589236,0
7.585,0.2036888743588079,0
7.587,0.1628821232912411,0
7.588,0.1156890996525146,0
7.59,0.0857880898211732,0
7.592,0.0737453220131759,0
7.593,0.070510484455147,0
7.595,0.0822647140003018,0
7.598,0.0923704483279291,0
7.599,0.1001257678902929,0
7.601,0.1191895631044926,0
7.604,0.1461810154911644,0
7.606,0.1586070802997571,0
7.608,0.1560265690063201,0
7.609,0.1468847436617287,0
7.611,0.1253291504567924,0
7.614,0.1081038484367645,0
7.615,0.0959450707314291,0
7.617,0.0754573088546833,0
7.619,0.0501130786036343,0
7.622,0.0320115819744308,0
7.624,0.0206519708876117,0
7.625,0.0125950197783674,0
7.628,0.0107574847458675,0
7.628,0.0045241203215781,0
7.631,-0.0065227458626628,0
7.632,-0.0146724928914591,0
7.634,-0.0222155719764524,0
7.636,-0.0293207257776583,0
7.639,-0.035166211490002,0
7.641,-0.0412800462440998,0
7.643,-0.0475035771172809,0
7.644,-0.0517533777679929,0
7.647,-0.0541156813479635,0
7.648,-0.0554443833860077,0
7.651,-0.0552843685650147,0
7.652,-0.0557605874294615,0
7.654,-0.0570758824941897,0
7.656,-0.0578541571078607,0
7.659,-0.05864506895214,0
7.661,-0.058439544925568,0
7.663,-0.0570702192109538,0
7.664,-0.0554801158343779,0
7.667,-0.0534128491399835,0
7.668,-0.0534134787511227,0
7.67,-0.0558547876642542,0
7.671,-0.0593560248006607,0
7.673,-0.0646903725067649,0
7.676,-0.0705815378315264,0
7.678,-0.0769686437247957,0
7.68,-0.0852055639050061,0
7.681,-0.0950742002149711,0
7.684,-0.1042232400937053,0
7.686,-0.1126635508598207,0
7.687,-0.1214241890040836,0
7.689,-0.129947145525046,0
7.691,-0.1400247153469307,0
7.694,-0.151812523640376,0
7.696,-0.1639831545515818,0
7.697,-0.176966225598862,0
7.7,-0.1864044724705215,0
7.702,-0.1917289266123965,0
7.703,-0.195308711085632,0
7.705,-0.1958597056476131,0
7.707,-0.1956038934165633,0
7.71,-0.1946765344954532,0
7.711,-0.1908013087922656,0
7.712,-0.1843857743495518,0
7.715,-0.1791117215659937,0
7.717,-0.1749577446420776,0
7.719,-0.1703733158431516,0
7.72,-0.1662389853732055,0
7.723,-0.1597378736438216,0
7.724,-0.150645969115675,0
7.726,-0.1410621364399705,0
7.728,-0.1303243611672483,0
7.73,-0.1216235442825921,0
7.733,-0.1154894824353477,0
7.735,-0.1099287824322036,0
7.736,-0.1059037681159945,0
7.739,-0.1020398150424436,0
7.74,-0.0982090306762865,0
7.743,-0.0959702198020447,0
7.744,-0.095069252372674,0
7.746,-0.0924265921892488,0
7.748,-0.0880120479487317,0
7.751,-0.083170217826992,0
7.753,-0.0771460592565977,0
7.753,-0.0721774634213896,0
7.756,-0.0684402416705701,0
7.758,-0.0642106908978356,0
7.759,-0.060005182128373,0
7.761,-0.0563654592418348,0
7.763,-0.0531659709516127,0
7.766,-0.050533079906871,0
7.767,-0.048584026588189,0
7.769,-0.0466494926890156,0
7.772,-0.0447571494964296,0
7.774,-0.0434353973377085,0
7.776,-0.0425718987946775,0
7.777,-0.0434936068085793,0
7.779,-0.0464226504640656,0
7.782,-0.0526851730430988,0
7.783,-0.0588114120843667,0
7.785,-0.0686541940392397,0
7.788,-0.0810136894869225,0
7.79,-0.0968547632119906,0
7.792,-0.1165144434189001,0
7.793,-0.1139147136436208,0
7.795,-0.091866983022829,0
7.796,-0.0739503033967164,0
7.799,-0.0568896208224178,0
7.8,-0.0462687196760472,0
7.802,-0.047543276528771,0
7.804,-0.0582394356971749,0
7.807,-0.0776731725062427,0
7.809,-0.0829347714358077,0
7.811,-0.0708324422846244,0
7.812,-0.0592300499862239,0
7.815,-0.0416829312047162,0
7.816,-0.0293431712438391,0
7.819,-0.0245512641354863,0
7.82,-0.016921742993071,0
7.822,-0.0095548076523014,0
7.825,-0.0041266989044819,0
7.827,0.0002298047704601,0
7.828,0.0017843215611993,0
7.831,0.0002401560359325,0
7.832,-0.0019198953784803,0
7.835,-0.0050553771722078,0
7.836,-0.0107459251585671,0
7.838,-0.018675832746788,0
7.839,-0.0237655457235508,0
7.841,-0.0257721589850349,0
7.844,-0.0269988842540613,0
7.846,-0.0261037243185556,0
7.848,-0.0267881080527132,0
7.849,-0.0293030632668848,0
7.851,-0.0307641526312846,0
7.854,-0.0319950364292618,0
7.855,-0.034565034118831,0
7.857,-0.0383072222219502,0
7.859,-0.0451663788781791,0
7.862,-0.0511537477684269,0
7.864,-0.0415123510691912,0
7.865,-0.0129866015171206,0
7.868,0.0274719593584867,0
7.87,0.0795623671269075,0
7.871,0.1258446280214517,0
7.873,0.1585829246646078,0
7.875,0.1809250221347614,0
7.878,0.1880651917739354,0
7.878,0.1984037610330748,0
7.881,0.2191643497755677,0
7.883,0.2458124961419452,0
7.884,0.2869458899069708,0
7.887,0.3610698505353881,0
7.888,0.4651978552390173,0
7.891,0.5860806020119553,0
7.892,0.7199619566866772,0
7.894,0.843788036739751,0
7.896,0.9491866956305388,0
7.899,1.0513058900382182,0
7.901,1.1449163203427166,0
7.903,1.2250289359893545,0
7.904,1.2920152133218588,0
7.907,1.3363675407253544,0
7.908,1.355677999220133,0
7.911,1.3613959694387292,0
7.912,1.3506746019518234,0
7.914,1.3143478022377555,0
7.916,1.2529519208752713,0
7.919,1.1935794112942588,0
7.92,1.1415488480474154,0
7.921,1.09208422116286,0
7.924,1.0553577713315694,0
7.926,1.0054424393908936,0
7.927,0.9322925684736558,0
7.929,0.837030196085584,0
7.931,0.6959204431206326,0
7.934,0.52607836935695,0
7.936,0.3209441001742471,0
7.937,0.0516366744981089,0
7.94,-0.2631864291606633,0
7.942,-0.6091335790662433,0
7.944,-0.9610010772629556,0
7.945,-1.2772424343304265,0
7.947,-1.5302822653654415,0
7.95,-1.7088164390317286,0
7.951,-1.8021599001385773,0
7.953,-1.810089499770448,0
7.956,-1.7509771263526204,0
7.958,-1.6384281488831258,0
7.96,-1.4990979112508438,0
7.961,-1.3647464444982935,0
7.963,-1.2498557646679542,0
7.964,-1.1535809874116592,0
7.967,-1.0751731094588368,0
7.968,-1.010651854899419,0
7.97,-0.9503318473519976,0
7.973,-0.8959696846380634,0
7.975,-0.8410704277096129,0
7.976,-0.7938936741287075,0
7.979,-0.7559433834370877,0
7.98,-0.7119920462900107,0
7.983,-0.6633500241837291,0
7.984,-0.6129936224282938,0
7.986,-0.5577708196567212,0
7.988,-0.5047326191655093,0
7.991,-0.4537029206137521,0
7.993,-0.3986651800659753,0
7.995,-0.3407341431149673,0
7.996,-0.2855808551729126,0
7.999,-0.2412990325570317,0
8.0,-0.2243113936538847,0
8.003,-0.2573593233152331,0
8.003,-0.3571364270675422,0
8.006,-0.5166398089452483,0
8.007,-0.6922008797701267,0
8.009,-0.804180886080894,0
8.012,-0.756671666870705,0
8.014,-0.4746144014476197,0
8.016,0.0573424456811327,0
8.017,0.7735429557998428,0
8.019,1.5353481287724324,0
8.022,2.167158191905412,0
8.023,2.504666363217753,0
8.025,2.435771324140856,0
8.028,1.9223118160083092,0
8.03,1.00270686156384,0
8.032,-0.2167812464903972,0
8.033,-1.575376638880949,0
8.036,-2.8755400314676822,0
8.038,-3.909644919929265,0
8.039,-4.497023995990387,0
8.041,-4.524826410337913,1
8.043,-3.9795952479694487,0
8.044,-2.9546399652202315,0
8.047,-1.629826007006191,0
8.049,-0.2294963689457714,0
8.051,1.0285326913215815,0
8.052,1.9751707087996864,0
8.055,2.515095279120818,0
8.056,2.632841879478891,0
8.059,2.383529317645157,0
8.06,1.8744316402318144,0
8.062,1.2430608423093512,0
8.064,0.6329549360105269,0
8.067,0.1674433634845597,0
8.069,-0.0737535186104376,0
8.071,-0.0706825164763937,0
8.072,0.1345130162080635,0
8.075,0.4547608845411617,0
8.076,0.7840064207264326,0
8.078,1.0309589822310818,0
8.08,1.1469494586385345,0
8.083,1.132309658655241,0
8.085,1.0291233143669762,0
8.087,0.8988867648190597,0
8.088,0.7953487934005796,0
8.089,0.7471502131077704,0
8.092,0.7535784549398125,0
8.094,0.7913011799317645,0
8.095,0.8285793141070995,0
8.097,0.8408232573966478,0
8.099,0.8183474749680341,0
8.102,0.7673741131648283,0
8.104,0.7053102804637482,0
8.105,0.6391173511777981,0
8.108,0.58074095934503,0
8.11,0.5411322199262004,0
8.111,0.5119893872321636,0
8.113,0.4943420371804307,0
8.115,0.4776590393421619,0
8.118,0.4444259884738145,0
8.119,0.3923138076896023,0
8.121,0.3461682048946155,0
8.124,0.3099724585150893,0
8.126,0.2790550194958626,0
8.128,0.262074766394175,0
8.128,0.2365977108039854,0
8.131,0.2041248947523418,0
8.132,0.1805333260728653,0
8.134,0.1624136361642075,0
8.136,0.1555118047972803,0
8.139,0.1578124323816717,0
8.141,0.1517527677910385,0
8.143,0.135831870988751,0
8.144,0.1156214948979185,0
8.147,0.0902869681944187,0
8.148,0.0467535937312926,0
8.151,-0.0076137544754662,0
8.152,-0.0385203845579143,0
8.154,-0.0419447882421838,0
8.156,-0.0372124488292056,0
8.159,-0.0230200718337723,0
8.161,0.0077703464062382,0
8.163,0.043910498549409,0
8.164,0.0728042775981378,0
8.167,0.0888037092211897,0
8.168,0.0765658388487937,0
8.169,0.0370785713675207,0
8.171,-0.0125902817791816,0
8.174,-0.0669588454867981,0
8.176,-0.1055340708861229,0
8.177,-0.1182431005716159,0
8.18,-0.1178057578220438,0
8.182,-0.1029873990710499,0
8.184,-0.0859850615247138,0
8.185,-0.0761389062541521,0
8.187,-0.0728232812175995,0
8.19,-0.0846681358763814,0
8.191,-0.1034744708426441,0
8.193,-0.1277756606240879,0
8.196,-0.1589697266890712,0
8.198,-0.1944593333869908,0
8.2,-0.223410070312064,0
8.201,-0.2435503985901828,0
8.203,-0.2595986322655932,0
8.206,-0.2675838202115492,0
8.207,-0.2874676454186155,0
8.209,-0.3202601361682105,0
8.211,-0.3523417400368488,0
8.212,-0.3883079164333836,0
8.215,-0.4106480896329094,0
8.217,-0.4164037824420254,0
8.219,-0.4173710402864769,0
8.22,-0.4083722829269548,0
8.223,-0.4173647847959009,0
8.224,-0.4474487627206633,0
8.226,-0.4827344958528082,0
8.228,-0.5259250701308872,0
8.23,-0.5866055011555629,0
8.233,-0.6580360233391098,0
8.235,-0.7302548694826805,0
8.236,-0.8012079453191993,0
8.239,-0.8611342174321185,0
8.24,-0.91043826479569,0
8.243,-0.959024474889262,0
8.244,-1.0096507315757786,0
8.246,-1.050850410222243,0
8.248,-1.0858152694880383,0
8.251,-1.11868836424268,0
8.253,-1.142054692652209,0
8.254,-1.161337648175337,0
8.256,-1.174176372240077,0
8.257,-1.1626252614356434,0
8.259,-1.1246721205935295,0
8.262,-1.0531924823582623,0
8.263,-0.9411588268487832,0
8.265,-0.7855566058591381,0
8.267,-0.5841927454072038,0
8.27,-0.3602636036205969,0
8.272,-0.1218674454180468,0
8.273,0.1300394526391032,0
8.276,0.3760606576052726,0
8.278,0.5942754850574604,0
8.279,0.7707241993564832,0
8.281,0.9039127056086848,0
8.283,0.9895267695321452,0
8.286,1.019162389564401,0
8.288,1.0020426139715772,0
8.289,0.9565081073736584,0
8.292,0.8941070520635994,0
8.294,0.829410865327403,0
8.295,0.7760788496585816,0
8.296,0.7311938686982407,0
8.299,0.698241877848105,0
8.3,0.6771265777386005,0
8.302,0.6627207083895654,0
8.304,0.6495477870194953,0
8.307,0.6342531853162316,0
8.309,0.6085380937896476,0
8.311,0.5720917982987118,0
8.312,0.5223879054915724,0
8.315,0.4565050762556338,0
8.316,0.4184666704491974,0
8.319,0.4104144008511428,0
8.32,0.4060633864183628,0
8.322,0.4161541101756206,0
8.325,0.4049667661216929,0
8.327,0.3676697345226454,0
8.328,0.3299138814164246,0
8.331,0.2820501042662942,0
8.332,0.2413228884064175,0
8.335,0.2109828851817416,0
8.336,0.1746672881225675,0
8.337,0.1369430814440292,0
8.339,0.1131835104597477,0
8.342,0.1031315784376244,0
8.344,0.1031188440500327,0
8.345,0.1171470319899391,0
8.348,0.133583223008151,0
8.35,0.152470655626566,0
8.351,0.1832460106529006,0
8.353,0.2238235870275188,0
8.355,0.2444905852941921,0
8.358,0.2436502784888545,0
8.359,0.234145498305389,0
8.361,0.207950132140212,0
8.364,0.1852033338970631,0
8.366,0.1669324883476801,0
8.368,0.1360784475775716,0
8.369,0.096755811853156,0
8.371,0.068562436037862,0
8.374,0.0511204010529403,0
8.375,0.0377576860860036,0
8.377,0.0332630748485668,0
8.378,0.021628277851487,0
8.381,0.0020462823181623,0
8.383,-0.0135481259112417,0
8.384,-0.0286605572897379,0
8.387,-0.042759628933181,0
8.388,-0.0544766153539209,0
8.391,-0.0665318924837493,0
8.392,-0.0784369237915517,0
8.394,-0.0875042859076509,0
8.396,-0.0938794742894783,0
8.399,-0.0983877808093883,0
8.401,-0.1004202071304945,0
8.403,-0.1041836586184371,0
8.404,-0.1100022079423089,0
8.407,-0.1153582596396511,0
8.408,-0.1213305166491491,0
8.411,-0.1256690283063737,0
8.412,-0.1280655528054315,0
8.414,-0.1305086708267927,0
8.416,-0.132445249015969,0
8.419,-0.1348275220313851,0
8.42,-0.1379821205304295,0
8.422,-0.1410549232345766,0
8.424,-0.1443861842352098,0
8.425,-0.1478328315390955,0
8.427,-0.1513494395900772,0
8.43,-0.1553319310432144,0
8.431,-0.1597706374551638,0
8.433,-0.1629691310861284,0
8.436,-0.1648563418173677,0
8.438,-0.1662612593219087,0
8.44,-0.1667519869671712,0
8.441,-0.1674385375043607,0
8.444,-0.168418298852553,0
8.446,-0.1687831395473088,0
8.447,-0.1687868804415934,0
8.449,-0.1690745657234242,0
8.451,-0.1696068883185056,0
8.454,-0.1702624386302315,0
8.456,-0.171199064216258,0
8.457,-0.1718369461263134,0
8.46,-0.1721705362957676,0
8.462,-0.1726264197640826,0
8.463,-0.1730898265932527,0
8.464,-0.1734686853513246,0
8.467,-0.1738075642363804,0
8.468,-0.1740775008425736,0
8.47,-0.1742698055971364,0
8.473,-0.1745642385730682,0
8.475,-0.1749682661595401,0
8.476,-0.1753922226073201,0
8.479,-0.175881202117749,0
8.48,-0.1749831017037768,0
8.483,-0.1725493440583917,0
8.484,-0.1692988637843551,0
8.486,-0.1648153409160206,0
8.488,-0.1599171538633842,0
8.491,-0.1546460943793952,0
8.493,-0.1482181657825142,0
8.495,-0.1407871024092645,0
8.496,-0.1334219762577202,0
8.499,-0.1261023350293084,0
8.5,-0.1184015055138253,0
8.503,-0.1105711031767476,0
8.503,-0.1017582602763155,0
8.505,-0.0918979713663318,0
8.507,-0.0816120167413001,0
8.51,-0.0706994665554325,0
8.512,-0.0617933063370527,0
8.513,-0.055221521790201,0
8.516,-0.0495995162372805,0
8.518,-0.0457017617087631,0
8.519,-0.0421540065776736,0
8.521,-0.0388828860354411,0
8.523,-0.0372806194333164,0
8.526,-0.03709849226015,0
8.528,-0.0362043677350906,0
8.529,-0.0346244022892269,0
8.532,-0.0332533528014214,0
8.534,-0.0315882285506891,0
8.536,-0.0312896883905851,0
8.537,-0.0324941873749184,0
8.539,-0.0339825659326986,0
8.542,-0.036150227148388,0
8.543,-0.0352809077659624,0
8.544,-0.0308816143505177,0
8.547,-0.0249944732248332,0
8.549,-0.0165234148488063,0
8.551,-0.0073420206524711,0
8.552,0.0024313639585201,0
8.555,0.0147275261835655,0
8.556,0.0292021471267439,0
8.559,0.0420813031642536,0
8.56,0.053316758805272,0
8.562,0.0645288534144808,0
8.564,0.0747815478236244,0
8.567,0.0868710079045095,0
8.569,0.1010038610093331,0
